energies [eV],0.0000000,0.1490961,0.3024289,0.4550301,0.6043380,0.7516527,0.8988828,1.0479043,1.1999828,1.3525979,1.5012901
0.0,0.06683349931228044,0.06198405878938125,0.10302742543736196,0.17571691417297364,0.2506374361922633,0.3001200704431835,0.2799436083167436,0.196922263345101,0.11062139176759161,0.07351899625212538,0.09368840868859155
0.0025,0.06970671370706033,0.06545694002295505,0.10992394647608388,0.1856270842544922,0.26143941295163636,0.3103262036360102,0.28926139735558504,0.20535988018438867,0.1167050354360372,0.07672033924712329,0.09625540196218708
0.005,0.07829096925172285,0.07592777198219683,0.13034139611448844,0.21447437301600666,0.29263645759647194,0.33958747631660935,0.3157687242835465,0.22944955618958987,0.13443468758206997,0.08628630345481714,0.10397951654248358
0.0075,0.09248232921439424,0.0935056004004203,0.1634314934002744,0.25975249978278214,0.3408995656427071,0.3842400810724135,0.3555803649869342,0.2658123730902432,0.1622528290759567,0.10204399253924666,0.11690356576218947
0.01,0.11213493158435005,0.11824767843125275,0.2076869357570235,0.3177207884021893,0.4015266750271992,0.43932139190801706,0.4035265583202286,0.3097258557105226,0.19768701926615784,0.1235538169119158,0.1349856701993038
0.0125,0.13708396069354134,0.1500394882269515,0.2609239677494182,0.38393681135238683,0.4693145543176105,0.4996959564905387,0.45451505338032605,0.3562424689958593,0.23764623689578077,0.1499997225768708,0.15797569481944446
0.015,0.16718054179121178,0.18851842925471884,0.32039822505333415,0.45376260336903923,0.5391611261655996,0.5607814555070592,0.5045367077548146,0.40125652844831056,0.2789373309713071,0.18021849411536878,0.18533703003126123
0.0175,0.20234461714345425,0.23308014867408705,0.38302826792956124,0.5226693180235413,0.606234156245106,0.6186202645424119,0.5509097815957555,0.44216868537085563,0.31890022393517126,0.21291882304183488,0.21627714075360024
0.02,0.24262016087174954,0.2829393577332667,0.4456294676310771,0.586314388700423,0.6658071087641003,0.6694713307032747,0.5918051712299428,0.4778893829510576,0.35589871038248816,0.2470426856357838,0.24995114573410704
0.0225,0.2882367648157811,0.3371810636037574,0.5050727765787626,0.6405224398296661,0.713144867128511,0.7094030982877041,0.6254473048742218,0.5082538824275605,0.38945671978842045,0.2821158838891324,0.2857928507534153
0.025,0.33960643549258146,0.3947486404260956,0.5583898924627411,0.6814232469408879,0.7438148587533014,0.7344270172993349,0.649631355473497,0.5332162025982978,0.41996472035045146,0.3184000141318651,0.32384617406088523
0.0275,0.3972041469543871,0.45436963277756837,0.6029561513666996,0.7059732095616967,0.7545711496113755,0.7413138515851124,0.6619295442077805,0.5523229800389388,0.44813586018763324,0.3567410805548107,0.3649035602081574
0.03,0.46128455814658237,0.5144979302489797,0.636864854598536,0.712803014333199,0.7444905867679867,0.7288143115412835,0.6606029888426411,0.5648020579665818,0.47454472825976357,0.3981673568528735,0.4103095317691594
0.0325,0.5314373043440813,0.5733565183367212,0.6594744744200565,0.7030285674228306,0.7158150729694174,0.698664852342012,0.645723026048174,0.5702147410148619,0.49952426206562117,0.443403469105418,0.4613940844913726
0.035,0.606115574987421,0.6291212836950832,0.6718588970825703,0.6805310922414491,0.6739617959930846,0.655753874450879,0.6198701573689873,0.5692622082798022,0.5234017684062475,0.4925054123065042,0.518704210347041
0.0375,0.6823269252969737,0.6801679557790866,0.6768243185706713,0.6513874063262737,0.6265443695627486,0.6072714638097059,0.587969641259244,0.5642061105977396,0.5468455914153659,0.5447233674301072,0.5812969661298701
0.04,0.7556879627407376,0.7252516397762558,0.678282067768215,0.6225157007379022,0.5816674772115118,0.5610982721473369,0.5562294007751922,0.5585736520702146,0.5709417482781106,0.5985532676335876,0.6464437649127162
0.0425,0.8209974299617104,0.763544955787677,0.6801586389254766,0.5999948823657397,0.5461242990563895,0.5240090263707313,0.5306086655149646,0.5562320260502444,0.5968735525715902,0.6519155538594862,0.7099077009747514
0.045,0.8732246680272697,0.7945690964521003,0.6852714765121319,0.5877229029961197,0.5240840013825228,0.500337107090362,0.5153910790431845,0.5602189434077702,0.6253351047124256,0.7024027677405671,0.7668228714354934
0.0475,0.9086562801693827,0.8181302076067714,0.6947221705729397,0.5868637661980295,0.5166526214387326,0.4914512640297295,0.5123819604832087,0.5718949662738048,0.6560615169598664,0.7476288996856205,0.8129042523953928
0.05,0.9257492672334449,0.8343391117985685,0.708012704687354,0.5962005969749897,0.5223052944330627,0.4960883756903066,0.5209098114737661,0.5907258827390263,0.6877934882597849,0.7856535562082028,0.8455381387235499
0.0525,0.9253469504651726,0.8436429509926373,0.723720048580232,0.6130880296889356,0.5378671350489829,0.5112259411295782,0.5384845961886625,0.6147252050858166,0.7187111687314157,0.815380820161716,0.8643127744696109
0.055,0.9101494037494287,0.8467442508648757,0.7402112168118848,0.6344528729927725,0.5595834602399223,0.5330990843943574,0.5617190619262719,0.6412085974889202,0.7470361286665588,0.8367045859110319,0.8707411784602621
0.0575,0.8837072027825232,0.844318647930797,0.7559907316246262,0.6574210853543339,0.5838716472243618,0.5579439844646655,0.587100307232514,0.6674543107411451,0.7714120947841483,0.8502445282942035,0.8673167705464676
0.06,0.849440600926233,0.8366364368720539,0.7695324552183804,0.6793998922197246,0.6075750099632047,0.582335666031758,0.6113865264346273,0.6910055042266894,0.790811873679461,0.8567048439834647,0.856377290786629
0.0625,0.8101366878657675,0.823343349843278,0.7789284723109903,0.6978255103870001,0.6278697243021352,0.6032143683038316,0.6316717007026407,0.7095964676287153,0.8041175179623972,0.8562011211844536,0.839357420871836
0.065,0.7680461315011621,0.8035941453652453,0.7817442832702233,0.709976844759584,0.642151197464697,0.6178890748698269,0.6453790941477293,0.7210161637404311,0.8097481873024767,0.8479453475782687,0.8167844862688554
0.0675,0.725342993277079,0.7765778317670086,0.775414068625732,0.7132083222595996,0.6482216881295102,0.6242901672698817,0.6504474436789477,0.7232005172837034,0.8057085879239679,0.8305630900478165,0.7889365444862253
0.07,0.6844901719141048,0.7421783031002686,0.7580567047763574,0.7056493721872796,0.6448607228324024,0.6214969234703509,0.645811556356814,0.7146930715851526,0.790199299762856,0.8029409990238958,0.7567174749059515
0.0725,0.6482309578902767,0.7014689497785865,0.7293837918442314,0.6871056005487762,0.6325606395105411,0.6103633845962242,0.631998833883633,0.6953488404946773,0.76253982507817,0.7652068393077612,0.7222006127287999
0.075,0.6191717998914961,0.6568307510636532,0.6912375584653313,0.6597052559489873,0.6140314339479398,0.5938538220245464,0.6115006866106112,0.6668912840298373,0.7239555687652127,0.7193638375654909,0.6885468952491679
0.0775,0.5992546232157925,0.6116969506575708,0.6475586654255401,0.627936437759351,0.5941120352326705,0.576842896763822,0.5886494399287664,0.633017213267265,0.6778523964070698,0.6692845954354375,0.659346994041122
0.08,0.589430030987549,0.5700976336896331,0.6037819391289504,0.597965177544072,0.5790088658295082,0.5653066345418811,0.5689316048524188,0.5988708408136049,0.6293849645976746,0.6200954903457068,0.6377492201811279
0.0825,0.5896618529593742,0.5362003580533705,0.5659203960831078,0.5764187039653151,0.5750257668950064,0.5651337479610629,0.5579315428293815,0.5700635125082858,0.5845045833434225,0.5772059275588116,0.625739703117156
0.085,0.5991742489734226,0.5138897736126934,0.5395979902468714,0.5690265838216266,0.5872052415037788,0.5809285170277171,0.5602367217523052,0.5515599583878068,0.5488086570925034,0.5453301203236238,0.6238376392259914
0.0875,0.6167362464380979,0.506376187355297,0.5292086354098162,0.5795066731279505,0.6182890810674833,0.6151415297324678,0.578676269000739,0.5468110858952856,0.5265604847845289,0.5277715307847928,0.6312217634291813
0.09,0.6408799110687249,0.5157663788298698,0.5373584158384911,0.60902159086219,0.668333367028793,0.6677923859507006,0.6140715394379312,0.5574061800956274,0.5201523898095933,0.5260774806993114,0.646214613549674
0.0925,0.6701137518841624,0.5426743433275796,0.5646540833795574,0.6563891538304263,0.7350871383204973,0.7368092762852447,0.6655493427573697,0.5833175507634171,0.5301312035708747,0.5400961484298381,0.6669680481873443
0.095,0.7033104487020054,0.58607285660958,0.6099786945743805,0.7190123437955713,0.8150326084011692,0.8188962614111043,0.731267659874542,0.6236352537109636,0.5557278778614662,0.568391773918644,0.6922409590072366
0.0975,0.7403489261629532,0.643645707149728,0.6712750062116617,0.7942750590913246,0.9047329461389693,0.9106029804649682,0.8092995304249098,0.6775463882186666,0.5957460157889423,0.6089976076551716,0.7221575882963063
0.1,0.7829673379895475,0.7127750454507153,0.7467455387149889,0.8809194610035185,1.0019400655792539,1.0092129942216714,0.8983172895416813,0.7451640285761753,0.6495738425183455,0.6604117519078128,0.7588067925747983
0.1025,0.8354939985769716,0.7920190193870427,0.8360562432665612,0.979709613443846,1.1059062271072886,1.11301207871842,0.9977103959253866,0.8278527615777007,0.7179676460575619,0.7226520662495038,0.806549167216356
0.105,0.9050557032569733,0.8825653473013929,0.9410124024657365,1.092882351848827,1.2166090560136524,1.2207196592376715,1.1069649514033977,0.927702779440565,0.8033106961892496,0.7980555330027691,0.871859360620528
0.1075,1.0008637612564866,0.9889425011171127,1.065162628795274,1.2223155913466162,1.333121623536135,1.3303030344031794,1.2244345637917216,1.0461611977749654,0.9090867789887221,0.891421520031705,0.962563342706342
0.11,1.1323786271136627,1.1183326352774534,1.2122232844114185,1.3671317846156554,1.4519575632879558,1.4378004248979792,1.3460925760148237,1.1822642956713798,1.0385906101430842,1.0091750756515347,1.0864282573413926
0.1125,1.306545303851587,1.2783117950072613,1.3837510408624654,1.5219605319235434,1.5664833538347043,1.5370482197900912,1.465131257708931,1.3313205472396215,1.1932187929510267,1.1575399130232211,1.2492128688687234
0.115,1.5247305414176762,1.473517668099423,1.5770238930069822,1.677108258418253,1.6681421408215695,1.6208717198864733,1.5730293632496783,1.4849344096998587,1.3709644899452322,1.3401126820638867,1.452562611264816
0.1175,1.7804276571348279,1.7024155943967332,1.7841563135945153,1.8209917205753907,1.7493512285885655,1.6836009280144584,1.6620979720015387,1.6327988991755664,1.5657837084555968,1.5555804476204207,1.6923161390253796
0.12,2.0587991853405336,1.9554896338499563,1.9929833247546485,1.943982271189337,1.8068678838063448,1.7238816557523489,1.7285242332255044,1.7657366108100854,1.7681458758234303,1.7964013649149293,1.957880577969055
0.1225,2.3387011100404522,2.2157992041554144,2.1894782774331305,2.041791891821196,1.8438701574814376,1.7463090767250427,1.7744529286499158,1.8786088128951353,1.966590787347499,2.048997794630596,2.2330558859305114
0.125,2.5969187702009333,2.4619847395318155,2.360702057147206,2.1165720828796144,1.8694240426621611,1.7607481925232473,1.8077559814529571,1.9715549735891547,2.1496117299706508,2.29548368154298,2.498309627993468
0.1275,2.8133414663625866,2.672796921826439,2.4971360923622554,2.175011307499099,1.8951906475490614,1.7791975226321999,1.8392139856330365,2.048729859283306,2.307114202370803,2.5165044262988663,2.7339594022380562
0.13,2.9752760280940995,2.831691938186717,2.5936459169303236,2.2243314161994467,1.930701692818119,1.8113521030520152,1.8781158856054216,2.1150886546187193,2.431103861240372,2.694447137209564,2.923419354365821
0.1325,3.0793852295022175,2.9300084885312385,2.649141764993482,2.2683420044265787,1.9793648781515574,1.8607731114509674,1.9282678315443516,2.172895242063715,2.515812235551243,2.816325761841401,3.0557297298267287
0.135,3.130747845784161,2.967928705015088,2.665620819596245,2.305644914179377,2.0371255348871684,1.9234542248242223,1.9863081844381465,2.2199163314472137,2.557816995827044,2.8758265984608666,3.1268252210323495
0.1375,3.13975566740224,2.953321214909044,2.64738781706581,2.3308981449478674,2.094438967010179,1.9895331043072941,2.0431999261104132,2.2503549502706184,2.5566197923976586,2.874209070205872,3.139477661504676
0.14,3.1183117575138337,2.8991747746968186,2.600813521405917,2.3383533688103895,2.1405949223864167,2.047358527104765,2.088210923157219,2.2580589393794948,2.5155791969512205,2.8199687681437173,3.1021216433184167
0.1425,3.076701134734275,2.82059925445592,2.534322267984129,2.325620009890555,2.168240442889939,2.0880120411786494,2.1134206019826416,2.2402439990023364,2.4425136104446254,2.727238686401643,3.0268815480454836
0.145,3.021840699030969,2.73200985549586,2.4579173467291735,2.2955489796717727,2.1758977858008377,2.108101234602911,2.1165700359339086,2.1996357404676767,2.3491653070981218,2.613092001014829,2.927088672230085
0.1475,2.956772418097663,2.6448119986748764,2.381752601133741,2.255153408556942,2.167280408877128,2.1095426091430105,2.1008751181558436,2.1438201832391734,2.249131536730176,2.4941287417893783,2.8146432890357893
0.15,2.8809837341818954,2.5656605804996633,2.3138647610979324,2.2121596764943394,2.147928362165822,2.0966429349034796,2.072107598147773,2.082077286449529,2.1546963900731018,2.3830714004912945,2.697725484935428
0.1525,2.791321243948847,2.4955081740158236,2.2579237453552237,2.1710306274388573,2.121081107535538,2.07221778462019,2.034625276895908,2.021381656233025,2.073709706515004,2.2862591176693647,2.579516484225869
0.155,2.6835711774596507,2.429856293072963,2.212121479092698,2.1306490686126867,2.085142844791174,2.035035923030886,1.9886421692495098,1.963660541558106,2.0078109946472136,2.202911698045556,2.458575318729597
0.1575,2.5548095314744526,2.360481798735547,2.1698900088309574,2.0849311564122273,2.034235707734946,1.9801361367081987,1.9302881669948049,1.905719528257439,1.952762156949042,2.1264934971642044,2.331000330357768
0.16,2.4061693027154014,2.278486345020415,2.1223273820165147,2.0261176599505655,1.9616709580462306,1.9019746978048886,1.8544842033649018,1.8418065293353323,1.9007212820961727,2.047836815684435,2.193794057831263
0.1625,2.245068520607428,2.1779112169528445,2.0614182046615177,1.9490706961776754,1.8645609513549954,1.7987744841934121,1.759074970757342,1.7673996457648045,1.8434889895521325,1.9590163767468063,2.0482249453791246
0.165,2.085730410799305,2.058768985863763,1.9828851525934899,1.8544608066725616,1.747171467445582,1.6757648986861864,1.6480086604945834,1.6823089166512162,1.7755369252172213,1.8567406401944373,1.9018125670373736
0.1675,1.9472125315548996,1.92846527140542,1.8878417633711788,1.7494536047986071,1.6212978093029942,1.5455555826347882,1.5318835881144994,1.5916752155239229,1.6958857850214717,1.7442114454912954,1.7680124746567598
0.17,1.8491268524952034,1.8010655918286886,1.7829971570905347,1.6457669490152462,1.5034394173704548,1.425367254918142,1.4255286759155168,1.5046150780926308,1.6085525807622623,1.6310055194254907,1.6635112159053775
0.1725,1.806193763943513,1.694480986640931,1.6795832807889897,1.5562402457032996,1.410049494297699,1.3322517549459936,1.3437091101467669,1.4313812664650454,1.521703570447321,1.5310814009906357,1.6038879105828754
0.175,1.8233956959013324,1.626185278433146,1.5912905750560227,1.49139571681184,1.35285393446804,1.2782661411662137,1.2967511582129514,1.3803049393350888,1.4458606211294995,1.459440280572736,1.598914081768203
0.1775,1.8934041923486542,1.6084495899040565,1.5314377569180568,1.4570876457604487,1.3358719413131748,1.2672697788405431,1.287664037016517,1.3556002188368017,1.3915014528250849,1.4282182212326844,1.648860255288049
0.18,1.99735284240589,1.644246388712874,1.509741659315749,1.4536068014397248,1.3548855999349174,1.2942363831394472,1.311514583837885,1.3564427655208529,1.366440937168164,1.4430657274058445,1.7430102584527511
0.1825,2.10894120628494,1.725106933971238,1.5293376644466545,1.4760497359041733,1.3990816582600074,1.3469340330683603,1.3569784779800018,1.3773200266873538,1.3735645984200053,1.5007515985206648,1.8610189541409348
0.185,2.2008415159784187,1.8318923878256639,1.585037246234591,1.5156461983564375,1.4541301558407669,1.4092798794687802,1.4093900114073572,1.4094143511180695,1.4095761505474487,1.5888005431324879,1.977066396686364
0.1875,2.2514800005831277,1.9387903319046946,1.663737777058979,1.5618289096130054,1.5058271779968315,1.465407662185066,1.4544818295638313,1.44277762953875,1.4653265780058746,1.6876211520879794,2.0658973000957808
0.19,2.2501157100353164,2.0197590242519126,1.7472919094133503,1.60474241695386,1.5435154116375427,1.5035330973428875,1.481953843901783,1.468903706738366,1.527846214094761,1.7748902421811117,2.1089828721733967
0.1925,2.198588264928111,2.0555535122646456,1.8172054392223511,1.6376567691026669,1.562561750638091,1.518696820571199,1.4880053676096543,1.4830055580632544,1.58353905120565,1.831092688963312,2.09885201813709
0.195,2.1092928910203095,2.038946087776265,1.8596519053712819,1.6584773030019868,1.5651613216565026,1.5136518621016695,1.4760544034252634,1.4851789659141716,1.6215608273818678,1.8445494241688072,2.0400910498926708
0.1975,2.000289125691067,1.9761910248400254,1.8690117516120541,1.6696578020715942,1.5590842701415564,1.4974631781252596,1.4552756365317947,1.4798564098708649,1.6362755111422578,1.8142140092737344,1.9467625097249432
0.2,1.8893760693343902,1.8841299211703324,1.8486393979390878,1.6764279809657396,1.5545531577604674,1.4821436170148474,1.4372483156365383,1.4736465933831273,1.6280375599229437,1.7492394266795113,1.83733854355879
0.2025,1.7892906117322132,1.784067476941378,1.8086367111337252,1.6840707171551639,1.5603211018814453,1.4784019494151588,1.4318975803403327,1.4724967174695696,1.6022261261573618,1.665500925864246,1.7291645196021377
0.205,1.705466606351355,1.6948615820005932,1.7616782924283683,1.6954973069727626,1.5804760660953947,1.492126916597605,1.444266724272393,1.479453673745737,1.56705543453119,1.580486217404701,1.6343717155121125
0.2075,1.636807139171613,1.6279165581339268,1.7186948991251585,1.7102585468515292,1.6133288493592945,1.5229642527895837,1.4734519254475613,1.4940782553403094,1.5311413278869834,1.5085024812207293,1.5583815702763752
0.21,1.5787066068566502,1.585790606085709,1.6861898884758588,1.72538965002364,1.6527929806424633,1.565448188265472,1.513968377724653,1.5136451489170535,1.5017078889661517,1.4578860956881687,1.500937067386636
0.2125,1.5268393961725701,1.5644516110964277,1.666048885084539,1.7375100935920214,1.6914064498016255,1.6118867163736346,1.5587099202414962,1.5353421611080063,1.483917567561979,1.4308643195134325,1.458711998471342
0.215,1.4801617577632946,1.5575640695113049,1.6574034289608868,1.7449574593462711,1.7233962850286846,1.6554258945476878,1.6018599807781961,1.5581641356940739,1.481098790371011,1.4254606239637035,1.4282288900490336
0.2175,1.4420432145447244,1.5604657359197733,1.6590401624699538,1.7487326141496031,1.7462289622697587,1.6917666962085227,1.6403301872541278,1.583343506049125,1.4951867493478586,1.4380536055541464,1.4079778788134163
0.22,1.419311856047525,1.5719056602641597,1.6706973003843006,1.7516769929629548,1.760042628797259,1.7189194326960768,1.6731616375452363,1.6130242516632618,1.5265800595112256,1.4651569036672851,1.3991627201783883
0.2225,1.419822551771579,1.592987978504837,1.6923522502186836,1.7562637447783558,1.7656007638062066,1.7355623275930923,1.6995420347985712,1.6477610996390155,1.5731323875452603,1.5036912319833928,1.405061511901602
0.225,1.4496018416684207,1.6242998181701414,1.7219961726863353,1.762144321495985,1.7621429208985502,1.7393531153360964,1.716818838832128,1.6841889719300311,1.6287964330154774,1.5500107693897867,1.4294150141646045
0.2275,1.5106033231273146,1.663120765597168,1.7534471371886777,1.7647919827185137,1.7464969368889844,1.726408851590616,1.719802768894802,1.7141744255988631,1.68300508791634,1.5986688809645675,1.4745335035131997
0.23,1.5997157972852998,1.7024913157221064,1.7760131672213666,1.756102140471993,1.7139513461208211,1.6923453624490956,1.7018844232730366,1.7262081256551345,1.7218425202176648,1.642064378765347,1.5398348970812417
