energies [eV],0.0000000,0.1490961,0.3024289,0.4550301,0.6043380,0.7516527,0.8988828,1.0479043,1.1999828,1.3525979,1.5012901
0.0,0.03853538241368453,0.037284388506043084,0.03752456627892753,0.061776162928692764,0.223795070367327,0.24171675170186546,0.08884976471514437,0.04459809393234437,0.03933462334086046,0.040953141545771204,0.04462268399075334
0.0025,0.041102157102808914,0.04002638457208341,0.0404479291320413,0.06578039637970345,0.22854895103015713,0.2482894581104256,0.09386978111127603,0.047614218707041835,0.04182882270594979,0.04347259037238427,0.047252484778930876
0.005,0.04875057214503603,0.04829760184651053,0.04928425961724821,0.07773596404742089,0.24288540348305868,0.2679264646526893,0.1088676682416832,0.056708761258416375,0.049351491842977935,0.05102434371071462,0.05504876401117132
0.0075,0.06130772252644392,0.06219904139718825,0.06420332319922603,0.09750628093997137,0.2670700871558986,0.30040812187714877,0.13368646092415584,0.07200648195561266,0.0620165151716724,0.06358833094297271,0.06773922422146839
0.01,0.0784734114520669,0.081817169464142,0.0853966151109282,0.1249346064474908,0.301601025528191,0.34538640598864323,0.16813593088655474,0.09367661298834547,0.07999121117450449,0.08112088942414164,0.08488575123059838
0.0125,0.09981455940007405,0.10711209322825502,0.11295603290671337,0.15992063709257248,0.3470705094900655,0.40218563813236574,0.21199017741672097,0.12186441059406727,0.10345459753411128,0.10353762245603425,0.10592184241847727
0.015,0.12480732457991203,0.13779911880573206,0.14674204995964668,0.20247535089678803,0.40372337731946595,0.4693240470877205,0.2648547666069401,0.15660170283148417,0.1325019648091262,0.13066429544797736,0.13022561240912336
0.0175,0.15291214907575293,0.17325571078005597,0.18627839033467183,0.2526792765774093,0.47081325540324337,0.5439701872715555,0.32586753270807073,0.1976772033228916,0.1670088171031552,0.1621776480772242,0.15723125088436823
0.02,0.183680731838127,0.2124991794973742,0.2307198130575999,0.31054205687094844,0.5460528885529282,0.6217076470284412,0.39334632856048846,0.24450143439421904,0.2064731574283439,0.19753779514699227,0.1865344859664001
0.0225,0.2168610749435007,0.2542641203380096,0.2789441671775789,0.37578457611575383,0.6255839734471682,0.697036900422432,0.4645916582713164,0.29600388182400006,0.24990165447803622,0.23595166446933583,0.21798269967599743
0.025,0.2524708581071918,0.29720366127559344,0.3297790253905299,0.4476486447456821,0.7046786682330047,0.7646547253291118,0.5360624105989674,0.3506380083501732,0.2958158929440728,0.27641375349718916,0.25169026261394756
0.0275,0.29080410917605504,0.34019973777937373,0.38236037024241243,0.5248474110020569,0.7789943764689123,0.8210874489851095,0.604049897421903,0.4065538414693875,0.34244854825044496,0.3178296156984659,0.2879946191928733
0.03,0.3323725203849061,0.38269796417293367,0.43651720021105705,0.6057222631019787,0.8458398417467757,0.8659056118017572,0.665688157809018,0.4619776455568237,0.38812535094323153,0.3592423469350892,0.327336474192121
0.0325,0.37777361890327255,0.4249860217482986,0.49304120103004706,0.6885282415445043,0.9047634552822272,0.9018146425165644,0.7199346419997091,0.5157210893755676,0.43177132054552236,0.4000726935477661,0.37011630042782023
0.035,0.4275150052437252,0.4682930233342999,0.5536862402049052,0.7716806228693119,0.957078094687568,0.9333844700791143,0.7679805307887865,0.5676851541401856,0.4733836780320526,0.44032952369230716,0.4165557040724717
0.0375,0.48182034683379804,0.5146509383586497,0.6207669881345089,0.8537540403925822,1.0045263664008197,0.9649220539349519,0.8128088487963225,0.6191333125348787,0.5143089194149393,0.4807029810562631,0.46660761939475315
0.04,0.5404822167840022,0.5665087503537476,0.6963499138683034,0.933204904775455,1.0478033316307398,0.9984812173992018,0.8579166804756276,0.6725104635500341,0.5571669373711443,0.5225072148311166,0.5199478516889267
0.0425,0.6027916387562631,0.6261233133620359,0.7812083587040242,1.007975437663189,1.0858254545328863,1.0329982910032172,0.9057281967878589,0.7307187950968926,0.6053444304056895,0.5674567607807252,0.5760201547495086
0.045,0.667576327087023,0.6948376227618436,0.8738235043889363,1.075292745399939,1.1162049340461402,1.0650272367361397,0.9564142999584837,0.7959467402164913,0.6620942265467635,0.6172978922219974,0.6341271258022754
0.0475,0.7333370375678936,0.7724005400416992,0.96988000841733,1.131973834483655,1.1367696680661012,1.090734095096848,1.007726678888983,0.8684246826100779,0.7294288642671507,0.6733366351352313,0.6934951792139815
0.05,0.7984446545003824,0.8565069531134241,1.0625998908766294,1.1752703843041998,1.1473302884464647,1.1082060506509301,1.0559768246637702,0.9456372946499216,0.8070952666768088,0.7359786459597916,0.7533076024811558
0.0525,0.8613622063093025,0.9428243832560919,1.1440687673072645,1.2039967458021097,1.1507573560175268,1.118979940808429,1.0977574740387115,1.0224712498719977,0.8920425203593745,0.8044052214314833,0.8127139227205695
0.055,0.9208491007410635,1.025642979505869,1.2073218108496602,1.2194907674610376,1.152824493691437,1.1281007251465198,1.1316456452252124,1.0924952858171992,0.9786832501264907,0.8765281965010367,0.8708762555358909
0.0575,0.9761573222776252,1.0991400111579606,1.2485844933523202,1.2259408647391603,1.1608170704468685,1.1427125609424271,1.1591604859000628,1.1500639276542104,1.0600959124804195,0.9493365030818834,0.9270972797911885
0.06,1.02718904818469,1.158996521033427,1.2688856110614917,1.2298686734107425,1.1814884444367573,1.1697723029692924,1.1845918403061297,1.1925188831452374,1.1299287224573344,1.0195552396773582,0.9810197688470577
0.0625,1.0746325536667862,1.2038747906104605,1.2743518762105275,1.2388297806711437,1.219123281571929,1.2137761461786458,1.2137953524557157,1.2215973934498845,1.1844475089902042,1.084474401586737,1.0327833418791774
0.065,1.1200734326017232,1.2362763660540088,1.2749820485880146,1.2596834272503685,1.274333081777766,1.2753055062958318,1.2524154503780174,1.2434308488937915,1.2240268646782133,1.1427182224570922,1.08308769106588
0.0675,1.1660784330191931,1.2624376913267077,1.2822303136396063,1.2969485459083896,1.343966476293424,1.3508288313418646,1.3041870899108448,1.2670093848584518,1.2534788555516205,1.1947594693270334,1.1331299832255635
0.07,1.2162338226856524,1.291285697543242,1.3062447324395488,1.3518207992000388,1.422134195778214,1.4338123680832682,1.3698547653889694,1.3016565438952004,1.2810709008600178,1.2431135762417473,1.1845312602912241
0.0725,1.2750527431450804,1.332713252871722,1.3537047999332195,1.4222471123857225,1.502089927618998,1.5167732662641784,1.4470840876998872,1.3544219452989967,1.3165670116897072,1.2922364925943928,1.2393984736892505
0.075,1.347622959468204,1.3956274192465183,1.4269476641529466,1.5041628571831671,1.5784040133652146,1.5936221206559786,1.5313839256773603,1.4283233252357248,1.368962960584473,1.3481186121004223,1.3005345529110888
0.0775,1.4388805426510014,1.4861653235398455,1.5244964192485022,1.5933991553899192,1.6487169666521402,1.6615187273620384,1.6177263447300754,1.5220164168759416,1.4446138778726048,1.4175562183876669,1.371640493465562
0.08,1.5524982079589527,1.6064199568331008,1.642538260486096,1.6874822013542292,1.7144248490035654,1.7215860597782082,1.7022674390465606,1.6308668448227739,1.5461949562996062,1.507006280287741,1.457153889111675
0.0825,1.689581720991713,1.7538959655319921,1.7765216760479425,1.7864070136555277,1.779934520909743,1.7781980685929235,1.7834890106035286,1.748828176946862,1.6725305858837514,1.6210849049741873,1.5614603779172571
0.085,1.847588972748926,1.921834279203194,1.9221185590753633,1.8919464852800023,1.8507241333017426,1.8370934791963414,1.8622809154119822,1.8702659092872393,1.8190422473169998,1.7609646624472293,1.687458508043338
0.0875,2.0199324573551625,2.100334878563734,2.0751639877165124,2.005761205072796,1.9309043623996467,1.9030088638584486,1.9409329176003731,1.9909504670603746,1.9784585312005514,1.9231652305058762,1.8348957901745169
0.09,2.1966244548768787,2.277996091075367,2.230780678842309,2.1272139619677395,2.02122982578723,1.9777410660037396,2.0214730609861644,2.1079128507159868,2.141545386059388,2.0992530171225354,1.9991319785900998
0.0925,2.365967201341272,2.443618760921783,2.382340769085569,2.2519338310730044,2.1183234247715266,2.059317124203009,2.10408327913013,2.2184283025931872,2.2977975010086573,2.276724138322319,2.1710470976365763
0.095,2.51685310593734,2.5874875800826795,2.5210227708964346,2.3718411133705333,2.215342476133907,2.142513285837912,2.1862568491173358,2.318825024770042,2.4362031494063983,2.44095283282777,2.3383404316617358
0.0975,2.640949761750816,2.7020471482858257,2.6364759075500936,2.476617106465879,2.303743771933001,2.220353996571121,2.2629811477545574,2.403860299999775,2.546227465598505,2.577729607308047,2.4879905052195674
0.1,2.7340131486228323,2.782093330489262,2.7185823028608334,2.556051120033516,2.3753925351394245,2.285940742784045,2.3277976948756813,2.4671289258599045,2.6191279459293604,2.675743135957583,2.6090541112335073
0.1025,2.795940932726454,2.824846175869275,2.759799687440652,2.602419033259221,2.42428470738225,2.3339011449489604,2.374284767119479,2.5024491992032982,2.6494412812470935,2.728499994653116,2.6948698621608287
0.105,2.8296982703326456,2.8302192850478556,2.757296917381092,2.6122126598210476,2.4474533288703992,2.361119673193154,2.3974761301087506,2.5057032471987295,2.6363171096723272,2.7353348769155525,2.743999085451542
0.1075,2.839689947453552,2.8012516851760623,2.714111949883532,2.5868607562902017,2.445089462417023,2.3668253090272957,2.3949190789942723,2.476444431326761,2.584204793099324,2.701432449487174,2.759726832592558
0.11,2.8302448919382424,2.7443171903797166,2.638912577684733,2.5324249789834505,2.42019718904225,2.352423917413953,2.367303284679341,2.4186499583369505,2.502526606688624,2.636843175198399,2.7484987429397316
0.1125,2.8047200269102017,2.668648325996086,2.5444139837717157,2.4584909035161635,2.378167452822596,2.321422480684297,2.318688391791295,2.340406602425097,2.4042378420561565,2.554635500054939,2.7179449090611754
0.115,2.7653527671532574,2.5849818334212475,2.4449125857442686,2.3766163492504204,2.326403511660435,2.2795204737323003,2.256347795787278,2.252675113785488,2.3036027790413116,2.468469229037367,2.6750965467388093
0.1175,2.713734736510548,2.50361002261065,2.3536740703879615,2.2986520818840974,2.273872323425053,2.2345913614928734,2.1901744705041537,2.1675655213776186,2.2137830923125685,2.390125310528267,2.6252520756647986
0.12,2.6516156999148226,2.432542842076741,2.280849812583321,2.235249671047239,2.2303152803125346,2.196111984800554,2.1315605833751956,2.096566433030564,2.1448297754837817,2.3276025289181517,2.5716491194996185
0.1225,2.5816836518265673,2.3764652331678833,2.232375853993261,2.194672561182178,2.204924607986034,2.173788579539771,2.0917436541794476,2.0490133104586397,2.1025069418988274,2.2842709183674836,2.5158766109373216
0.125,2.508000983464179,2.3367853655494333,2.209954565182183,2.1819631343327486,2.2045941819631554,2.175478416386023,2.0798010131142473,2.030935343866692,2.087992729303154,2.259206805007376,2.4587408282454772
0.1275,2.435829701608964,2.3125397839119795,2.211874481026788,2.1984376695953833,2.232150538652234,2.204983357224307,2.100652491109814,2.044298162774977,2.098356070916249,2.2484286291760647,2.401203548310096
0.13,2.3708519708047358,2.3015843797349076,2.234255901495837,2.241550036524349,2.2851910593466984,2.260475883775122,2.153582698040817,2.086732565425775,2.1275929666290465,2.2465258950702256,2.3450052962940307
0.1325,2.3180837100386635,2.3015581330331893,2.27225400622684,2.305183912322384,2.356095319189025,2.334294674260976,2.2318211911950594,2.1518705525222397,2.168059143430277,2.2482436992224377,2.292830866615987
0.135,2.280977125978223,2.310420970086326,2.3209033158562162,2.3804844730511476,2.4334230828011356,2.4143678002443094,2.323472927624917,2.2303353306928666,2.212155565553931,2.249780408789783,2.248061932499266
0.1375,2.261108594991698,2.326684065598773,2.3754879693449547,2.457178606542822,2.5044376176723735,2.4869658344238115,2.4137817490016484,2.3113186979310165,2.253940038600365,2.2496935097769315,2.2143155936592382
0.14,2.258438078609136,2.349469912155803,2.4315604789598937,2.5252301278403193,2.5580194755518084,2.539981881425373,2.4882504609109546,2.3844304371879437,2.2902785483381227,2.2492952134933955,2.1948820537504203
0.1425,2.271765319502823,2.378380625277042,2.484815901675823,2.5764913561274514,2.5870630530245142,2.565690680982452,2.5358089632499308,2.441411535706105,2.3210776741428636,2.2522919801138372,2.192071054896444
0.145,2.2988805962311085,2.4130142163251658,2.531099578165752,2.606009717175676,2.5896783509159036,2.562199701682944,2.5511299240698597,2.4773547066014823,2.3484190745138087,2.263492962917245,2.20642809925073
0.1475,2.336286281872319,2.452109290370982,2.5666440313953824,2.6126703152294892,2.568957234959916,2.5332835857175464,2.535459838821682,2.4911518035426496,2.374845611363969,2.2867577294680688,2.236010911868169
0.15,2.3787972346619415,2.4926345921666466,2.588529091278102,2.59904094908327,2.531592359182213,2.486848047598035,2.4957431509894827,2.4851476591151855,2.4014660040048144,2.3228226997591195,2.2761210243716175
0.1525,2.4196678230118933,2.5294375974966288,2.5951643920950187,2.5704302194319966,2.4858983021975884,2.4326637024994393,2.4423840885876835,2.4640962622234412,2.4267334176997504,2.367954746473565,2.3198707986671225
0.155,2.451648836861429,2.5559901751925023,2.5865958955066444,2.533382643654769,2.4398052227244476,2.3800059281189885,2.3863603329281218,2.4337133423604658,2.4464689063203724,2.4142172919682205,2.3596370111212734
0.1575,2.468809054929041,2.5662184396800187,2.564460331834067,2.4939734777896105,2.3992212765818426,2.335766791972677,2.336539303734802,2.3992109105964845,2.4551925810931814,2.451503783753727,2.388941842723852
0.16,2.46842376957484,2.5567606272117835,2.5316245518091174,2.456357209981939,2.367009929107015,2.3032788680882734,2.297898348303348,2.364230138299446,2.4482372419956997,2.4706820991999807,2.403987824386046
0.1625,2.4520097217638686,2.5285850740452145,2.491593422803958,2.4219920747985135,2.342679759994057,2.2820045268036706,2.2709825168852062,2.330441421623952,2.4237494331474534,2.466654511514701,2.404264041351408
0.165,2.4249451701486264,2.4871167595134778,2.4479093394732336,2.389758288448337,2.3228126925004924,2.268004793296993,2.2525349415429394,2.297820482399251,2.383746943446673,2.440119524181973,2.3920720954115184
0.1675,2.3947696070782167,2.4406900833079894,2.403644651800439,2.356844520370829,2.3021285131788836,2.25506152866712,2.2368921118652993,2.2653209909669387,2.333772470947853,2.397345561764427,2.3713623738310505
0.17,2.3688084347413776,2.397953963548556,2.3610553744018095,2.3200655268328996,2.274950195753747,2.2362247318002653,2.217680801230361,2.231585846132434,2.281238939827187,2.3480686459336693,2.346495637224713
0.1725,2.3520302789927445,2.365289489850085,2.3214286783301987,2.2771291307024444,2.2367678696471196,2.205537424804626,2.1894464098687383,2.19546812728476,2.2331217290153265,2.3023293873682205,2.321319533119498
0.175,2.345848842387618,2.345237164177107,2.2851410952008853,2.2275031783153976,2.185588265005097,2.159680366880927,2.149019158692782,2.156355936710026,2.193910450524848,2.2674236336891593,2.29868754463713
0.1775,2.348142912262475,2.3363296153890403,2.251981297122953,2.1727662440278515,2.1228217189128182,2.099238622518354,2.0965280190145217,2.11446935060273,2.16462996482483,2.2460576441341136,2.2803063933987633
0.18,2.3542759963710362,2.334183808936121,2.2216737097645445,2.1165500131841837,2.053559054590922,2.0292888835391567,2.0358967522768707,2.071234271312624,2.143309929338112,2.2362750400996205,2.2667706290175964
0.1825,2.3586573028281443,2.333203883558508,2.1944218373586217,2.064148029451405,1.986086662110307,1.9590067021417559,1.9746154428811131,2.0296006664126094,2.1265997597757744,2.233021583030498,2.257724126337629
0.185,2.3562835267222844,2.3282232981173476,2.1711944860953873,2.021810074259942,1.9306136214194047,1.9001402381096861,1.9225544025185182,1.9940021422485736,2.1117533043904904,2.230572153752139,2.252104998516366
0.1875,2.343881182680052,2.315598168565785,2.153518254507942,1.9956746676300452,1.8972699853736181,1.864527757722792,1.8898886408288698,1.9696920848273711,2.098014361181699,2.2247175957678067,2.248380643052141
0.19,2.32045152280761,2.293628280013303,2.1427534429013333,1.9903592063622648,1.8937287972815045,1.8611538168799202,1.8845363873741479,1.9614636532412661,2.0867881369438837,2.213806992084873,2.244639301257549
0.1925,2.2872047129303974,2.2624379510431134,2.1391721641401897,2.0075022547286485,1.9229796716846035,1.8935317076561045,1.9098188428758822,1.9721013727079642,2.0805343592866152,2.1983290684425243,2.2385204739990026
0.195,2.246964625856415,2.2235885750734465,2.1412991628510234,2.0447247842491745,1.981923736322171,1.9581816568027826,1.9630854720168636,2.001067228735363,2.080993484331716,2.17950835453397,2.227108353643644
0.1975,2.203227019500625,2.1796213205863553,2.145929152382234,2.0954777916856777,2.0612718005638095,2.0446893233891434,2.0356960723247854,2.0439058795841367,2.087610923523683,2.1578088042160104,2.207065221755328
0.2,2.159094893774058,2.133581865783679,2.1488361445636692,2.1499471292652834,2.146901380695384,2.1373760552960914,2.1143815272650577,2.092540678569111,2.096929445827368,2.13224346653781,2.1752181787398026
0.2025,2.1164471386850376,2.088493982858756,2.1458634182692125,2.1968099247736386,2.2223723095158823,2.2182042902863603,2.183591573700658,2.136464895465475,2.1032163999870153,2.100828612677411,2.1295617896414836
0.205,2.0756339211893975,2.0467928072672277,2.133886615016632,2.2253720862869835,2.272047477882351,2.2702357020192085,2.2283303992409156,2.164593425168275,2.1000771837581045,2.061863168845197,2.0703142547445386
0.2075,2.035891249443295,2.0098958521828516,2.111321787683521,2.227556747981079,2.284113286665643,2.2809477856125757,2.2369863481301833,2.167469521548553,2.0823755436071694,2.015267190587679,2.0005420497193143
0.21,1.9963142628987907,1.978135735233339,2.078196165200216,2.1994000945257413,2.2529187444761334,2.244749070835581,2.2037143114420688,2.1394488273029495,2.0478035203679257,1.9632454503009575,1.9259278465298417
0.2125,1.9569492967231295,1.9512021973840012,2.036040538311189,2.141869418608757,2.1801782116022044,2.1642095818754035,2.129901156004516,2.0803490093010546,1.9976275922015674,1.9099705054976954,1.8536619354869273
0.215,1.9194180786400448,1.9289134316645606,1.9878381293528247,2.060907248858628,2.074793644268754,2.049691294749596,2.024299293458049,1.9960289991969642,1.936505320360234,1.860517112950693,1.7907797755032249
0.2175,1.8867350633789157,1.9118934772767109,1.9380239683787615,1.9666146810006344,1.9512545532957546,1.917372712102679,1.9015548101850575,1.897564420265534,1.8715657670126966,1.819610052230673,1.7425860088010598
0.22,1.8623495546111517,1.9017062556023705,1.892249369016893,1.8715992244290491,1.826867362871652,1.7860460963570277,1.7793038409933792,1.7990183118001408,1.8110415112246465,1.7906969599638143,1.71172650070931
0.2225,1.8489137971827452,1.9002315704113717,1.8566242825718309,1.7886717947963253,1.718397666030796,1.673371430923532,1.6744891620267468,1.7143852261720187,1.7627419876281076,1.7755693251657496,1.6981703739495244
0.225,1.8473939893471751,1.9085735711173926,1.836411094563816,1.7283772167373523,1.6388815282091356,1.5925356047169612,1.5998796328360316,1.6545395276433845,1.7326074155516658,1.7743923519350724,1.6999775688428937
0.2275,1.8569493926798386,1.9260490272230055,1.8345126794093112,1.6969745735882562,1.5954048257183564,1.5500894340882183,1.5617613279797342,1.6250990536564422,1.7235685799607776,1.7858888113842395,1.7144140482688286
0.23,1.8755879771066715,1.9498804723627126,1.8503916463819912,1.695416797975004,1.5883425923865384,1.545424136263707,1.5593593319765202,1.6257411013427485,1.734936073305576,1.8075274789129083,1.738938157495088
