freqs [eV],Lambda [1/ps]
0.000000,0.097907
0.002500,0.099323
0.005000,0.103906
0.007500,0.112612
0.010000,0.126857
0.012500,0.148226
0.015000,0.178051
0.017500,0.216913
0.020000,0.264182
0.022500,0.317790
0.025000,0.374366
0.027500,0.429821
0.030000,0.480232
0.032500,0.522767
0.035000,0.556291
0.037500,0.581453
0.040000,0.600234
0.042500,0.615185
0.045000,0.628704
0.047500,0.642612
0.050000,0.658145
0.052500,0.676263
0.055000,0.698073
0.057500,0.725162
0.060000,0.759640
0.062500,0.803823
0.065000,0.859514
0.067500,0.927082
0.070000,1.004643
0.072500,1.087826
0.075000,1.170441
0.077500,1.246078
0.080000,1.310150
0.082500,1.361580
0.085000,1.403349
0.087500,1.441566
0.090000,1.483311
0.092500,1.534048
0.095000,1.595511
0.097500,1.664768
0.100000,1.734673
0.102500,1.795532
0.105000,1.837454
0.107500,1.852784
0.110000,1.838006
0.112500,1.794650
0.115000,1.729018
0.117500,1.650858
0.120000,1.571400
0.122500,1.501297
0.125000,1.448941
0.127500,1.419418
0.130000,1.414186
0.132500,1.431378
0.135000,1.466541
0.137500,1.513572
0.140000,1.565583
0.142500,1.615534
0.145000,1.656630
0.147500,1.682679
0.150000,1.688598
0.152500,1.671136
0.155000,1.629596
0.157500,1.566237
0.160000,1.486098
0.162500,1.396240
0.165000,1.304655
0.167500,1.219152
0.170000,1.146465
0.172500,1.091657
0.175000,1.057806
0.177500,1.045992
0.180000,1.055605
0.182500,1.084973
0.185000,1.132174
0.187500,1.195758
0.190000,1.275018
0.192500,1.369576
0.195000,1.478289
0.197500,1.597815
0.200000,1.721468
0.202500,1.839041
0.205000,1.938092
0.207500,2.006659
0.210000,2.036731
0.212500,2.027364
0.215000,1.986194
0.217500,1.928613
0.220000,1.874659
0.222500,1.844549
0.225000,1.854227
0.227500,1.912203
0.230000,2.018380
0.232500,2.164819
0.235000,2.337828
0.237500,2.520621
0.240000,2.695903
0.242500,2.848074
0.245000,2.964890
0.247500,3.038558
0.250000,3.066157
0.252500,3.049383
0.255000,2.993710
0.257500,2.907236
0.260000,2.799482
0.262500,2.680338
0.265000,2.559122
0.267500,2.443628
0.270000,2.339144
0.272500,2.247661
0.275000,2.167676
0.277500,2.094992
0.280000,2.024532
0.282500,1.952745
0.285000,1.879761
0.287500,1.810399
0.290000,1.753497
0.292500,1.719555
0.295000,1.717347
0.297500,1.750499
0.300000,1.815169
0.302500,1.899712
0.305000,1.986672
0.307500,2.056702
0.310000,2.093315
0.312500,2.086977
0.315000,2.037207
0.317500,1.952080
0.320000,1.845461
0.322500,1.733047
0.325000,1.628524
0.327500,1.540873
0.330000,1.473285
0.332500,1.423649
0.335000,1.386282
0.337500,1.354429
0.340000,1.323005
0.342500,1.290980
0.345000,1.262772
0.347500,1.248205
0.350000,1.260859
0.352500,1.315093
0.355000,1.422373
0.357500,1.587724
0.360000,1.807199
0.362500,2.067084
0.365000,2.345243
0.367500,2.614557
0.370000,2.847784
0.372500,3.022741
0.375000,3.126452
0.377500,3.157251
0.380000,3.124383
0.382500,3.045417
0.385000,2.942243
0.387500,2.836590
0.390000,2.745840
0.392500,2.679809
0.395000,2.639019
0.397500,2.614991
0.400000,2.592726
0.402500,2.555001
0.405000,2.487367
0.407500,2.382318
0.410000,2.241305
0.412500,2.074083
0.415000,1.895904
0.417500,1.723831
0.420000,1.573529
0.422500,1.457336
0.425000,1.383666
0.427500,1.357161
0.430000,1.378880
0.432500,1.446113
0.435000,1.551894
0.437500,1.684734
0.440000,1.829237
0.442500,1.967998
0.445000,2.084671
0.447500,2.167528
0.450000,2.212409
0.452500,2.224023
0.455000,2.214997
0.457500,2.202804
0.460000,2.205381
0.462500,2.236626
0.465000,2.302966
0.467500,2.401817
0.470000,2.522278
0.472500,2.647880
0.475000,2.760752
0.477500,2.846184
0.480000,2.896349
0.482500,2.912020
0.485000,2.901638
0.487500,2.877912
0.490000,2.853119
0.492500,2.834810
0.495000,2.823550
0.497500,2.813476
0.500000,2.795345
0.502500,2.760728
0.505000,2.705722
0.507500,2.632880
0.510000,2.550862
0.512500,2.472110
0.515000,2.409420
0.517500,2.372421
0.520000,2.364898
0.522500,2.383657
0.525000,2.419245
0.527500,2.458359
0.530000,2.487288
0.532500,2.495383
0.535000,2.477553
0.537500,2.435170
0.540000,2.375361
0.542500,2.309172
0.545000,2.249240
0.547500,2.207558
0.550000,2.193602
0.552500,2.212902
0.555000,2.266051
0.557500,2.348234
0.560000,2.449378
0.562500,2.555097
0.565000,2.648508
0.567500,2.712837
0.570000,2.734470
0.572500,2.705833
0.575000,2.627317
0.577500,2.507569
0.580000,2.361872
0.582500,2.208931
0.585000,2.066932
0.587500,1.949944
0.590000,1.865603
0.592500,1.814507
0.595000,1.791257
0.597500,1.786649
0.600000,1.790346
0.602500,1.793395
0.605000,1.790119
0.607500,1.779092
0.610000,1.763145
0.612500,1.748509
0.615000,1.743336
0.617500,1.755911
0.620000,1.792861
0.622500,1.857618
0.625000,1.949341
0.627500,2.062473
0.630000,2.187075
0.632500,2.310014
0.635000,2.416949
0.637500,2.494805
0.640000,2.534295
0.642500,2.531924
0.645000,2.491021
0.647500,2.421490
0.650000,2.338261
0.652500,2.258585
0.655000,2.198580
0.657500,2.169662
0.660000,2.175709
0.662500,2.211833
0.665000,2.265362
0.667500,2.319018
0.670000,2.355486
0.672500,2.362024
0.675000,2.333638
0.677500,2.273865
0.680000,2.193047
0.682500,2.104881
0.685000,2.022558
0.687500,1.955767
0.690000,1.909326
0.692500,1.883464
0.695000,1.875175
0.697500,1.879812
0.700000,1.892299
0.702500,1.907763
0.705000,1.921776
0.707500,1.930589
0.710000,1.931580
0.712500,1.923880
0.715000,1.908845
0.717500,1.890035
0.720000,1.872463
0.722500,1.861214
0.725000,1.859795
0.727500,1.868766
0.730000,1.885193
0.732500,1.903212
0.735000,1.915619
0.737500,1.916017
0.740000,1.900795
0.742500,1.870264
0.745000,1.828562
0.747500,1.782391
0.750000,1.739055
0.752500,1.704489
0.755000,1.681921
0.757500,1.671524
0.760000,1.671033
0.762500,1.676942
0.765000,1.685743
0.767500,1.694729
0.770000,1.702193
0.772500,1.707158
0.775000,1.708975
0.777500,1.707098
0.780000,1.701144
0.782500,1.691128
0.785000,1.677670
0.787500,1.662045
0.790000,1.646058
0.792500,1.631845
0.795000,1.621677
0.797500,1.617766
0.800000,1.622049
0.802500,1.635909
0.805000,1.659880
0.807500,1.693456
0.810000,1.735095
0.812500,1.782481
0.815000,1.833028
0.817500,1.884516
0.820000,1.935669
0.822500,1.986478
0.825000,2.038049
0.827500,2.091931
0.830000,2.149026
0.832500,2.208397
0.835000,2.266405
0.837500,2.316594
0.840000,2.350560
0.842500,2.359710
0.845000,2.337513
0.847500,2.281594
0.850000,2.195014
0.852500,2.086276
0.855000,1.967982
0.857500,1.854460
0.860000,1.758954
0.862500,1.691092
0.865000,1.655225
0.867500,1.649999
0.870000,1.669176
0.872500,1.703430
0.875000,1.742633
0.877500,1.778043
0.880000,1.803899
0.882500,1.818087
0.885000,1.821817
0.887500,1.818482
0.890000,1.812102
0.892500,1.805822
0.895000,1.800926
0.897500,1.796646
0.900000,1.790768
0.902500,1.780786
0.905000,1.765121
0.907500,1.743947
0.910000,1.719300
0.912500,1.694459
0.915000,1.672869
0.917500,1.657034
0.920000,1.647794
0.922500,1.644217
0.925000,1.644059
0.927500,1.644552
0.930000,1.643168
0.932500,1.638114
0.935000,1.628446
0.937500,1.613935
0.940000,1.594886
0.942500,1.572103
0.945000,1.547022
0.947500,1.521917
0.950000,1.499968
0.952500,1.485016
0.955000,1.480961
0.957500,1.490879
0.960000,1.516077
0.962500,1.555338
0.965000,1.604666
0.967500,1.657700
0.970000,1.706838
0.972500,1.744852
0.975000,1.766580
0.977500,1.770210
0.980000,1.757790
0.982500,1.734837
0.985000,1.709186
0.987500,1.689349
0.990000,1.682736
0.992500,1.694064
0.995000,1.724252
0.997500,1.770092
1.000000,1.824864
1.002500,1.879831
1.005000,1.926231
1.007500,1.957175
1.010000,1.968877
1.012500,1.960896
1.015000,1.935500
1.017500,1.896563
1.020000,1.848491
1.022500,1.795512
1.025000,1.741422
1.027500,1.689609
1.030000,1.643164
1.032500,1.604911
1.035000,1.577301
1.037500,1.562203
1.040000,1.560655
1.042500,1.572610
1.045000,1.596752
1.047500,1.630432
1.050000,1.669805
1.052500,1.710212
1.055000,1.746811
1.057500,1.775355
1.060000,1.792995
1.062500,1.798976
1.065000,1.795107
1.067500,1.785921
1.070000,1.778382
1.072500,1.780969
1.075000,1.802037
1.077500,1.847593
1.080000,1.918987
1.082500,2.011363
1.085000,2.113704
1.087500,2.210884
1.090000,2.287387
1.092500,2.331585
1.095000,2.339127
1.097500,2.314251
1.100000,2.268560
1.102500,2.217709
1.105000,2.177126
1.107500,2.158028
1.110000,2.164760
1.112500,2.193996
1.115000,2.235824
1.117500,2.276370
1.120000,2.301307
1.122500,2.299415
1.125000,2.265294
1.127500,2.200477
1.130000,2.112655
1.132500,2.013328
1.135000,1.914736
1.137500,1.827112
1.140000,1.757064
1.142500,1.707309
1.145000,1.677420
1.147500,1.664945
1.150000,1.666330
1.152500,1.677448
1.155000,1.693884
1.157500,1.711310
1.160000,1.726160
1.162500,1.736468
1.165000,1.742512
1.167500,1.746817
1.170000,1.753367
1.172500,1.766265
1.175000,1.788410
1.177500,1.820739
1.180000,1.862320
1.182500,1.911044
1.185000,1.964423
1.187500,2.019944
1.190000,2.074865
1.192500,2.125715
1.195000,2.168105
1.197500,2.197257
1.200000,2.209288
1.202500,2.202772
1.205000,2.179852
1.207500,2.146329
1.210000,2.110613
1.212500,2.081895
1.215000,2.068220
1.217500,2.075037
1.220000,2.104453
1.222500,2.155030
1.225000,2.221826
1.227500,2.296504
1.230000,2.367734
1.232500,2.422282
1.235000,2.447113
1.237500,2.432248
1.240000,2.373589
1.242500,2.274598
1.245000,2.146002
1.247500,2.003443
1.250000,1.863812
1.252500,1.741500
1.255000,1.645745
1.257500,1.579707
1.260000,1.541248
1.262500,1.524808
1.265000,1.523629
1.267500,1.531638
1.270000,1.544566
1.272500,1.560194
1.275000,1.577837
1.277500,1.597381
1.280000,1.618257
1.282500,1.638758
1.285000,1.655952
1.287500,1.666241
1.290000,1.666357
1.292500,1.654444
1.295000,1.630830
1.297500,1.598239
1.300000,1.561372
1.302500,1.525981
1.305000,1.497667
1.307500,1.480685
1.310000,1.477007
1.312500,1.485877
1.315000,1.503985
1.317500,1.526268
1.320000,1.547184
1.322500,1.562120
1.325000,1.568510
1.327500,1.566334
1.330000,1.557850
1.332500,1.546716
1.335000,1.536877
1.337500,1.531639
1.340000,1.533225
1.342500,1.542837
1.345000,1.561001
1.347500,1.587840
1.350000,1.623020
1.352500,1.665326
1.355000,1.712108
1.357500,1.758962
1.360000,1.799992
1.362500,1.828722
1.365000,1.839483
1.367500,1.828801
1.370000,1.796351
1.372500,1.745135
1.375000,1.680848
1.377500,1.610656
1.380000,1.541735
1.382500,1.479948
1.385000,1.428924
1.387500,1.389676
1.390000,1.360802
1.392500,1.339213
1.395000,1.321243
1.397500,1.303884
1.400000,1.285799
1.402500,1.267798
1.405000,1.252609
1.407500,1.244022
1.410000,1.245724
1.412500,1.260218
1.415000,1.288169
1.417500,1.328298
1.420000,1.377764
1.422500,1.432804
1.425000,1.489459
1.427500,1.544205
1.430000,1.594435
1.432500,1.638727
1.435000,1.676839
1.437500,1.709398
1.440000,1.737312
1.442500,1.761076
1.445000,1.780200
1.447500,1.793007
1.450000,1.796913
1.452500,1.789131
1.455000,1.767624
1.457500,1.732013
1.460000,1.684202
1.462500,1.628488
1.465000,1.571058
1.467500,1.518911
1.470000,1.478424
1.472500,1.453958
1.475000,1.446946
1.477500,1.455771
1.480000,1.476465
1.482500,1.503981
1.485000,1.533577
1.487500,1.561881
1.490000,1.587349
1.492500,1.610084
1.495000,1.631185
1.497500,1.651919
1.500000,1.673003
1.502500,1.694199
1.505000,1.714291
1.507500,1.731350
1.510000,1.743136
1.512500,1.747481
1.515000,1.742585
1.517500,1.727289
1.520000,1.701380
1.522500,1.665970
1.525000,1.623793
1.527500,1.579214
1.530000,1.537742
1.532500,1.505021
1.535000,1.485506
1.537500,1.481246
1.540000,1.491219
1.542500,1.511508
1.545000,1.536340
1.547500,1.559651
1.550000,1.576690
1.552500,1.585131
1.555000,1.585399
1.557500,1.580169
1.560000,1.573293
1.562500,1.568556
1.565000,1.568635
1.567500,1.574547
1.570000,1.585639
1.572500,1.600024
1.575000,1.615239
1.577500,1.628886
1.580000,1.639101
1.582500,1.644815
1.585000,1.645872
1.587500,1.643057
1.590000,1.638055
1.592500,1.633254
1.595000,1.631319
1.597500,1.634535
1.600000,1.644098
1.602500,1.659598
1.605000,1.678960
1.607500,1.698898
1.610000,1.715788
1.612500,1.726631
1.615000,1.729820
1.617500,1.725453
1.620000,1.715153
1.622500,1.701479
1.625000,1.687142
1.627500,1.674270
1.630000,1.663941
1.632500,1.656092
1.635000,1.649800
1.637500,1.643782
1.640000,1.636910
1.642500,1.628558
1.645000,1.618704
1.647500,1.607836
1.650000,1.596789
1.652500,1.586602
1.655000,1.578423
1.657500,1.573401
1.660000,1.572518
1.662500,1.576348
1.665000,1.584805
1.667500,1.596974
1.670000,1.611093
1.672500,1.624716
1.675000,1.635057
1.677500,1.639486
1.680000,1.636097
1.682500,1.624188
1.685000,1.604464
1.687500,1.578845
1.690000,1.549916
1.692500,1.520262
1.695000,1.491981
1.697500,1.466589
1.700000,1.445259
1.702500,1.429172
1.705000,1.419635
1.707500,1.417834
1.710000,1.424278
1.712500,1.438232
1.715000,1.457464
1.717500,1.478508
1.720000,1.497417
1.722500,1.510762
1.725000,1.516498
1.727500,1.514397
1.730000,1.505922
1.732500,1.493642
1.735000,1.480458
1.737500,1.468918
1.740000,1.460803
1.742500,1.457009
1.745000,1.457656
1.747500,1.462312
1.750000,1.470288
1.752500,1.480919
1.755000,1.493790
1.757500,1.508800
1.760000,1.525997
1.762500,1.545212
1.765000,1.565665
1.767500,1.585748
1.770000,1.603193
1.772500,1.615611
1.775000,1.621217
1.777500,1.619410
1.780000,1.610948
1.782500,1.597628
1.785000,1.581641
1.787500,1.564886
1.790000,1.548549
1.792500,1.533063
1.795000,1.518399
1.797500,1.504471
1.800000,1.491443
1.802500,1.479818
1.805000,1.470307
1.807500,1.463579
1.810000,1.460011
1.812500,1.459519
1.815000,1.461482
1.817500,1.464748
1.820000,1.467701
1.822500,1.468408
1.825000,1.464858
1.827500,1.455322
1.830000,1.438777
1.832500,1.415302
1.835000,1.386309
1.837500,1.354494
1.840000,1.323482
1.842500,1.297234
1.845000,1.279363
1.847500,1.272544
1.850000,1.278137
1.852500,1.296075
1.855000,1.324976
1.857500,1.362409
1.860000,1.405229
1.862500,1.449938
1.865000,1.493055
1.867500,1.531475
1.870000,1.562794
1.872500,1.585559
1.875000,1.599392
1.877500,1.604973
1.880000,1.603894
1.882500,1.598444
1.885000,1.591386
1.887500,1.585768
1.890000,1.584712
1.892500,1.591106
1.895000,1.607125
1.897500,1.633600
1.900000,1.669412
1.902500,1.711179
1.905000,1.753510
1.907500,1.789897
1.910000,1.814103
1.912500,1.821649
1.915000,1.810897
1.917500,1.783365
1.920000,1.743162
1.922500,1.695788
1.925000,1.646756
1.927500,1.600542
1.930000,1.560152
1.932500,1.527300
1.935000,1.502912
1.937500,1.487588
1.940000,1.481765
1.942500,1.485558
1.945000,1.498467
1.947500,1.519176
1.950000,1.545630
1.952500,1.575357
1.955000,1.605889
1.957500,1.635098
1.960000,1.661340
1.962500,1.683431
1.965000,1.700546
1.967500,1.712175
1.970000,1.718138
1.972500,1.718639
1.975000,1.714271
1.977500,1.705932
1.980000,1.694690
1.982500,1.681635
1.985000,1.667793
1.987500,1.654089
1.990000,1.641326
1.992500,1.630140
1.995000,1.620921
1.997500,1.613736
2.000000,1.608326
