freqs [eV],Lambda [1/ps]
0.000000,0.094762
0.002500,0.097866
0.005000,0.107342
0.007500,0.123674
0.010000,0.147625
0.012500,0.180087
0.015000,0.221760
0.017500,0.272663
0.020000,0.331570
0.022500,0.395629
0.025000,0.460440
0.027500,0.520779
0.030000,0.571886
0.032500,0.610957
0.035000,0.638232
0.037500,0.657193
0.040000,0.673651
0.042500,0.694009
0.045000,0.723306
0.047500,0.763746
0.050000,0.814226
0.052500,0.870939
0.055000,0.928764
0.057500,0.982938
0.060000,1.030463
0.062500,1.070906
0.065000,1.106467
0.067500,1.141462
0.070000,1.181474
0.072500,1.232475
0.075000,1.300076
0.077500,1.388932
0.080000,1.502167
0.082500,1.640710
0.085000,1.802537
0.087500,1.982040
0.090000,2.169887
0.092500,2.353704
0.095000,2.519668
0.097500,2.654734
0.100000,2.748939
0.102500,2.797120
0.105000,2.799603
0.107500,2.761775
0.110000,2.692781
0.112500,2.603814
0.115000,2.506421
0.117500,2.411114
0.120000,2.326364
0.122500,2.257956
0.125000,2.208650
0.127500,2.178181
0.130000,2.163750
0.132500,2.161074
0.135000,2.165862
0.137500,2.175256
0.140000,2.188609
0.142500,2.207148
0.145000,2.232564
0.147500,2.265174
0.150000,2.302560
0.152500,2.339396
0.155000,2.368587
0.157500,2.383189
0.160000,2.378254
0.162500,2.351885
0.165000,2.305226
0.167500,2.241656
0.170000,2.165740
0.172500,2.082513
0.175000,1.997381
0.177500,1.916520
0.180000,1.847346
0.182500,1.798457
0.185000,1.778646
0.187500,1.794932
0.190000,1.850107
0.192500,1.940643
0.195000,2.055894
0.197500,2.179190
0.200000,2.290797
0.202500,2.372055
0.205000,2.409568
0.207500,2.398242
0.210000,2.342337
0.212500,2.254244
0.215000,2.151377
0.217500,2.052055
0.220000,1.971496
0.222500,1.918924
0.225000,1.896411
0.227500,1.899557
0.230000,1.919605
0.232500,1.946292
0.235000,1.970643
0.237500,1.987047
0.240000,1.994191
0.242500,1.994771
0.245000,1.994161
0.247500,1.998491
0.250000,2.012710
0.252500,2.039173
0.255000,2.077113
0.257500,2.123044
0.260000,2.171836
0.262500,2.218018
0.265000,2.256864
0.267500,2.285022
0.270000,2.300681
0.272500,2.303478
0.275000,2.294369
0.277500,2.275600
0.280000,2.250731
0.282500,2.224546
0.285000,2.202676
0.287500,2.190856
0.290000,2.193867
0.292500,2.214363
0.295000,2.251802
0.297500,2.301778
0.300000,2.356044
0.302500,2.403519
0.305000,2.432342
0.307500,2.432695
0.310000,2.399590
0.312500,2.334593
0.315000,2.245645
0.317500,2.144849
0.320000,2.044965
0.322500,1.955948
0.325000,1.882828
0.327500,1.825585
0.330000,1.780787
0.332500,1.744116
0.335000,1.712682
0.337500,1.686412
0.340000,1.668277
0.342500,1.663624
0.345000,1.679043
0.347500,1.721159
0.350000,1.795559
0.352500,1.905898
0.355000,2.053171
0.357500,2.235124
0.360000,2.445824
0.362500,2.675483
0.365000,2.910656
0.367500,3.135003
0.370000,3.330722
0.372500,3.480639
0.375000,3.570711
0.377500,3.592498
0.380000,3.545089
0.382500,3.435939
0.385000,3.280288
0.387500,3.099010
0.390000,2.915108
0.392500,2.749468
0.395000,2.616842
0.397500,2.523204
0.400000,2.465421
0.402500,2.433467
0.405000,2.414575
0.407500,2.397926
0.410000,2.378312
0.412500,2.357601
0.415000,2.343740
0.417500,2.347921
0.420000,2.381011
0.422500,2.450353
0.425000,2.557654
0.427500,2.698202
0.430000,2.861390
0.432500,3.032314
0.435000,3.194162
0.437500,3.330947
0.440000,3.430084
0.442500,3.484309
0.445000,3.492628
0.447500,3.460205
0.450000,3.397280
0.452500,3.317307
0.455000,3.234572
0.457500,3.161623
0.460000,3.106978
0.462500,3.073626
0.465000,3.058757
0.467500,3.054933
0.470000,3.052536
0.472500,3.042964
0.475000,3.021689
0.477500,2.990138
0.480000,2.955548
0.482500,2.928513
0.485000,2.918857
0.487500,2.931257
0.490000,2.962391
0.492500,3.000904
0.495000,3.030399
0.497500,3.034397
0.500000,3.001406
0.502500,2.928321
0.505000,2.821164
0.507500,2.693283
0.510000,2.561978
0.512500,2.444687
0.515000,2.355624
0.517500,2.303297
0.520000,2.289074
0.522500,2.306955
0.525000,2.344766
0.527500,2.386798
0.530000,2.417524
0.532500,2.425546
0.535000,2.406639
0.537500,2.365021
0.540000,2.312479
0.542500,2.265682
0.545000,2.242465
0.547500,2.257961
0.550000,2.321307
0.552500,2.433374
0.555000,2.585817
0.557500,2.761656
0.560000,2.937573
0.562500,3.087866
0.565000,3.189546
0.567500,3.227501
0.570000,3.198247
0.572500,3.110881
0.575000,2.984596
0.577500,2.843293
0.580000,2.708982
0.582500,2.596243
0.585000,2.509676
0.587500,2.445092
0.590000,2.393699
0.592500,2.347366
0.595000,2.302781
0.597500,2.262981
0.600000,2.235996
0.602500,2.231602
0.605000,2.257714
0.607500,2.317836
0.610000,2.410179
0.612500,2.528300
0.615000,2.662628
0.617500,2.802222
0.620000,2.936332
0.622500,3.055598
0.625000,3.152789
0.627500,3.223043
0.630000,3.263665
0.632500,3.273714
0.635000,3.253756
0.637500,3.206013
0.640000,3.134852
0.642500,3.047201
0.645000,2.952397
0.647500,2.861257
0.650000,2.784535
0.652500,2.731223
0.655000,2.707133
0.657500,2.713951
0.660000,2.748784
0.662500,2.804203
0.665000,2.868925
0.667500,2.929343
0.670000,2.971908
0.672500,2.985954
0.675000,2.966143
0.677500,2.913656
0.680000,2.835635
0.682500,2.743058
0.685000,2.647872
0.687500,2.560405
0.690000,2.487847
0.692500,2.433953
0.695000,2.399612
0.697500,2.383629
0.700000,2.383221
0.702500,2.394135
0.705000,2.410673
0.707500,2.426081
0.710000,2.433622
0.712500,2.428227
0.715000,2.408209
0.717500,2.376311
0.720000,2.339442
0.722500,2.306980
0.725000,2.288046
0.727500,2.288641
0.730000,2.309646
0.732500,2.346386
0.735000,2.389912
0.737500,2.429539
0.740000,2.455802
0.742500,2.462897
0.745000,2.449923
0.747500,2.420721
0.750000,2.382555
0.752500,2.344226
0.755000,2.314261
0.757500,2.299655
0.760000,2.305263
0.762500,2.333604
0.765000,2.384741
0.767500,2.455998
0.770000,2.541654
0.772500,2.633034
0.775000,2.719371
0.777500,2.789521
0.780000,2.834111
0.782500,2.847392
0.785000,2.828230
0.787500,2.780012
0.790000,2.709759
0.792500,2.626873
0.795000,2.541873
0.797500,2.465169
0.800000,2.405818
0.802500,2.370267
0.805000,2.361342
0.807500,2.377831
0.810000,2.414975
0.812500,2.465792
0.815000,2.522895
0.817500,2.580233
0.820000,2.634222
0.822500,2.683981
0.825000,2.730655
0.827500,2.776042
0.830000,2.820969
0.832500,2.863890
0.835000,2.900234
0.837500,2.922831
0.840000,2.923468
0.842500,2.895203
0.845000,2.834719
0.847500,2.743902
0.850000,2.630043
0.852500,2.504555
0.855000,2.380624
0.857500,2.270510
0.860000,2.183240
0.862500,2.123212
0.865000,2.089893
0.867500,2.078536
0.870000,2.081663
0.872500,2.090950
0.875000,2.099105
0.877500,2.101268
0.880000,2.095597
0.882500,2.082941
0.885000,2.065810
0.887500,2.047133
0.890000,2.029309
0.892500,2.013829
0.895000,2.001419
0.897500,1.992360
0.900000,1.986656
0.902500,1.983927
0.905000,1.983202
0.907500,1.982943
0.910000,1.981453
0.912500,1.977581
0.915000,1.971308
0.917500,1.963823
0.920000,1.956989
0.922500,1.952440
0.925000,1.950862
0.927500,1.951865
0.930000,1.954563
0.932500,1.958517
0.935000,1.964482
0.937500,1.974472
0.940000,1.990997
0.942500,2.015784
0.945000,2.048594
0.947500,2.086764
0.950000,2.125822
0.952500,2.160994
0.955000,2.188951
0.957500,2.208958
0.960000,2.222828
0.962500,2.233714
0.965000,2.244372
0.967500,2.255826
0.970000,2.267081
0.972500,2.275917
0.975000,2.280199
0.977500,2.278924
0.980000,2.272535
0.982500,2.262504
0.985000,2.250597
0.987500,2.238239
0.990000,2.226182
0.992500,2.214440
0.995000,2.202378
0.997500,2.188914
1.000000,2.172926
1.002500,2.153862
1.005000,2.132390
1.007500,2.110742
1.010000,2.092406
1.012500,2.081064
1.015000,2.079088
1.017500,2.086172
1.020000,2.098769
1.022500,2.110704
1.025000,2.114906
1.027500,2.105700
1.030000,2.080900
1.032500,2.042947
1.035000,1.998687
1.037500,1.957800
1.040000,1.930321
1.042500,1.923969
1.045000,1.942054
1.047500,1.982565
1.050000,2.038664
1.052500,2.100415
1.055000,2.157167
1.057500,2.199880
1.060000,2.222773
1.062500,2.223980
1.065000,2.205264
1.067500,2.171123
1.070000,2.127661
1.072500,2.081530
1.075000,2.039068
1.077500,2.005648
1.080000,1.985198
1.082500,1.979844
1.085000,1.989662
1.087500,2.012578
1.090000,2.044455
1.092500,2.079502
1.095000,2.111032
1.097500,2.132578
1.100000,2.139143
1.102500,2.128266
1.105000,2.100589
1.107500,2.059728
1.110000,2.011492
1.112500,1.962679
1.115000,1.919748
1.117500,1.887664
1.120000,1.869104
1.122500,1.864173
1.125000,1.870658
1.127500,1.884779
1.130000,1.902245
1.132500,1.919308
1.135000,1.933529
1.137500,1.944024
1.140000,1.951204
1.142500,1.956156
1.145000,1.959963
1.147500,1.963177
1.150000,1.965623
1.152500,1.966517
1.155000,1.964842
1.157500,1.959817
1.160000,1.951325
1.162500,1.940150
1.165000,1.927936
1.167500,1.916850
1.170000,1.909061
1.172500,1.906227
1.175000,1.909209
1.177500,1.918147
1.180000,1.932846
1.182500,1.953231
1.185000,1.979595
1.187500,2.012434
1.190000,2.051942
1.192500,2.097427
1.195000,2.146982
1.197500,2.197647
1.200000,2.245992
1.202500,2.288894
1.205000,2.324143
1.207500,2.350647
1.210000,2.368180
1.212500,2.376877
1.215000,2.376756
1.217500,2.367547
1.220000,2.348937
1.222500,2.321113
1.225000,2.285272
1.227500,2.243755
1.230000,2.199618
1.232500,2.155754
1.235000,2.113978
1.237500,2.074581
1.240000,2.036644
1.242500,1.999041
1.245000,1.961652
1.247500,1.926198
1.250000,1.896229
1.252500,1.876241
1.255000,1.870247
1.257500,1.880404
1.260000,1.906227
1.262500,1.944676
1.265000,1.991027
1.267500,2.040170
1.270000,2.087846
1.272500,2.131412
1.275000,2.169967
1.277500,2.203944
1.280000,2.234437
1.282500,2.262576
1.285000,2.289142
1.287500,2.314419
1.290000,2.338202
1.292500,2.359837
1.295000,2.378240
1.297500,2.391941
1.300000,2.399195
1.302500,2.398170
1.305000,2.387188
1.307500,2.364964
1.310000,2.330836
1.312500,2.285005
1.315000,2.228789
1.317500,2.164799
1.320000,2.096907
1.322500,2.029857
1.325000,1.968528
1.327500,1.917020
1.330000,1.877875
1.332500,1.851713
1.335000,1.837392
1.337500,1.832578
1.340000,1.834489
1.342500,1.840527
1.345000,1.848688
1.347500,1.857719
1.350000,1.867135
1.352500,1.877177
1.355000,1.888718
1.357500,1.903083
1.360000,1.921718
1.362500,1.945738
1.365000,1.975458
1.367500,2.010080
1.370000,2.047687
1.372500,2.085545
1.375000,2.120627
1.377500,2.150151
1.380000,2.171960
1.382500,2.184649
1.385000,2.187477
1.387500,2.180168
1.390000,2.162777
1.392500,2.135705
1.395000,2.099901
1.397500,2.057135
1.400000,2.010189
1.402500,1.962788
1.405000,1.919187
1.407500,1.883472
1.410000,1.858771
1.412500,1.846612
1.415000,1.846659
1.417500,1.856883
1.420000,1.874119
1.422500,1.894785
1.425000,1.915549
1.427500,1.933779
1.430000,1.947737
1.432500,1.956572
1.435000,1.960208
1.437500,1.959179
1.440000,1.954435
1.442500,1.947095
1.445000,1.938209
1.447500,1.928586
1.450000,1.918791
1.452500,1.909333
1.455000,1.900946
1.457500,1.894813
1.460000,1.892577
1.462500,1.896064
1.465000,1.906821
1.467500,1.925637
1.470000,1.952245
1.472500,1.985318
1.475000,2.022726
1.477500,2.061952
1.480000,2.100497
1.482500,2.136193
1.485000,2.167420
1.487500,2.193265
1.490000,2.213688
1.492500,2.229634
1.495000,2.242987
1.497500,2.256238
1.500000,2.271852
1.502500,2.291474
1.505000,2.315245
1.507500,2.341486
1.510000,2.366890
1.512500,2.387148
1.515000,2.397840
1.517500,2.395331
1.520000,2.377502
1.522500,2.344208
1.525000,2.297404
1.527500,2.240928
1.530000,2.179975
1.532500,2.120342
1.535000,2.067596
1.537500,2.026287
1.540000,1.999328
1.542500,1.987574
1.545000,1.989665
1.547500,2.002203
1.550000,2.020327
1.552500,2.038691
1.555000,2.052687
1.557500,2.059572
1.560000,2.059137
1.562500,2.053633
1.565000,2.046969
1.567500,2.043459
1.570000,2.046513
1.572500,2.057680
1.575000,2.076230
1.577500,2.099319
1.580000,2.122650
1.582500,2.141463
1.585000,2.151691
1.587500,2.151071
1.590000,2.139982
1.592500,2.121798
1.595000,2.102567
1.597500,2.089993
1.600000,2.091787
1.602500,2.113704
1.605000,2.157701
1.607500,2.220781
1.610000,2.295013
1.612500,2.368911
1.615000,2.429952
1.617500,2.467563
1.620000,2.475704
1.622500,2.454271
1.625000,2.408976
1.627500,2.349865
1.630000,2.289023
1.632500,2.238145
1.635000,2.206499
1.637500,2.199595
1.640000,2.218636
1.642500,2.260739
1.645000,2.319808
1.647500,2.387918
1.650000,2.456935
1.652500,2.520002
1.655000,2.572519
1.657500,2.612349
1.660000,2.639235
1.662500,2.653730
1.665000,2.656131
1.667500,2.645921
1.670000,2.622007
1.672500,2.583649
1.675000,2.531622
1.677500,2.469028
1.680000,2.401257
1.682500,2.335027
1.685000,2.276792
1.687500,2.231129
1.690000,2.199697
1.692500,2.181140
1.695000,2.171889
1.697500,2.167517
1.700000,2.164147
1.702500,2.159454
1.705000,2.153065
1.707500,2.146364
1.710000,2.141891
1.712500,2.142576
1.715000,2.150995
1.717500,2.168756
1.720000,2.196064
1.722500,2.231501
1.725000,2.272061
1.727500,2.313519
1.730000,2.351148
1.732500,2.380691
1.735000,2.399394
1.737500,2.406740
1.740000,2.404625
1.742500,2.396811
1.745000,2.387822
1.747500,2.381674
1.750000,2.380891
1.752500,2.386151
1.755000,2.396604
1.757500,2.410610
1.760000,2.426502
1.762500,2.443057
1.765000,2.459553
1.767500,2.475535
1.770000,2.490499
1.772500,2.503714
1.775000,2.514217
1.777500,2.520947
1.780000,2.522935
1.782500,2.519506
1.785000,2.510513
1.787500,2.496606
1.790000,2.479458
1.792500,2.461810
1.795000,2.447206
1.797500,2.439388
1.800000,2.441516
1.802500,2.455459
1.805000,2.481395
1.807500,2.517811
1.810000,2.561823
1.812500,2.609668
1.815000,2.657189
1.817500,2.700246
1.820000,2.735052
1.822500,2.758468
1.825000,2.768276
1.827500,2.763436
1.830000,2.744292
1.832500,2.712721
1.835000,2.672142
1.837500,2.627351
1.840000,2.584102
1.842500,2.548430
1.845000,2.525773
1.847500,2.520043
1.850000,2.532889
1.852500,2.563344
1.855000,2.608003
1.857500,2.661678
1.860000,2.718340
1.862500,2.772047
1.865000,2.817624
1.867500,2.850976
1.870000,2.869134
1.872500,2.870243
1.875000,2.853707
1.877500,2.820561
1.880000,2.773928
1.882500,2.719251
1.885000,2.663959
1.887500,2.616455
1.890000,2.584534
1.892500,2.573678
1.895000,2.585717
1.897500,2.618286
1.900000,2.665254
1.902500,2.718030
1.905000,2.767394
1.907500,2.805378
1.910000,2.826716
1.912500,2.829536
1.915000,2.815187
1.917500,2.787396
1.920000,2.751105
1.922500,2.711374
1.925000,2.672643
1.927500,2.638402
1.930000,2.611166
1.932500,2.592563
1.935000,2.583374
1.937500,2.583471
1.940000,2.591762
1.942500,2.606243
1.945000,2.624278
1.947500,2.643073
1.950000,2.660242
1.952500,2.674286
1.955000,2.684855
1.957500,2.692727
1.960000,2.699525
1.962500,2.707240
1.965000,2.717715
1.967500,2.732189
1.970000,2.751037
1.972500,2.773739
1.975000,2.799073
1.977500,2.825409
1.980000,2.851003
1.982500,2.874201
1.985000,2.893544
1.987500,2.907854
1.990000,2.916368
1.992500,2.918926
1.995000,2.916129
1.997500,2.909310
2.000000,2.900264
