freqs [eV],Lambda [1/ps]
0.000000,0.087191
0.002500,0.091349
0.005000,0.103840
0.007500,0.124698
0.010000,0.153949
0.012500,0.191535
0.015000,0.237188
0.017500,0.290223
0.020000,0.349304
0.022500,0.412261
0.025000,0.476131
0.027500,0.537539
0.030000,0.593442
0.032500,0.642049
0.035000,0.683569
0.037500,0.720454
0.040000,0.756922
0.042500,0.797875
0.045000,0.847564
0.047500,0.908450
0.050000,0.980647
0.052500,1.062038
0.055000,1.148941
0.057500,1.237025
0.060000,1.322145
0.062500,1.400944
0.065000,1.471190
0.067500,1.532035
0.070000,1.584357
0.072500,1.631212
0.075000,1.678175
0.077500,1.733126
0.080000,1.805113
0.082500,1.902222
0.085000,2.028928
0.087500,2.183814
0.090000,2.358666
0.092500,2.539484
0.095000,2.709243
0.097500,2.851522
0.100000,2.953794
0.102500,3.009406
0.105000,3.017880
0.107500,2.983852
0.110000,2.915287
0.112500,2.821683
0.115000,2.712687
0.117500,2.597261
0.120000,2.483259
0.122500,2.377214
0.125000,2.284124
0.127500,2.207205
0.130000,2.147766
0.132500,2.105435
0.135000,2.078819
0.137500,2.066425
0.140000,2.067376
0.142500,2.081468
0.145000,2.108458
0.147500,2.146931
0.150000,2.193453
0.152500,2.242629
0.155000,2.288201
0.157500,2.324773
0.160000,2.349356
0.162500,2.362050
0.165000,2.365588
0.167500,2.364043
0.170000,2.361278
0.172500,2.359784
0.175000,2.360246
0.177500,2.361836
0.180000,2.362981
0.182500,2.362234
0.185000,2.358938
0.187500,2.353501
0.190000,2.347254
0.192500,2.341960
0.195000,2.339138
0.197500,2.339394
0.200000,2.341984
0.202500,2.344803
0.205000,2.344844
0.207500,2.339006
0.210000,2.324920
0.212500,2.301463
0.215000,2.268771
0.217500,2.227887
0.220000,2.180354
0.222500,2.128065
0.225000,2.073458
0.227500,2.019814
0.230000,1.971301
0.232500,1.932541
0.235000,1.907761
0.237500,1.899907
0.240000,1.910127
0.242500,1.937891
0.245000,1.981692
0.247500,2.040012
0.250000,2.112111
0.252500,2.198286
0.255000,2.299389
0.257500,2.415687
0.260000,2.545365
0.262500,2.683215
0.265000,2.820129
0.267500,2.943869
0.270000,3.041181
0.272500,3.100786
0.275000,3.116279
0.277500,3.087897
0.280000,3.022407
0.282500,2.931100
0.285000,2.826614
0.287500,2.719748
0.290000,2.617406
0.292500,2.522265
0.295000,2.434022
0.297500,2.351460
0.300000,2.274325
0.302500,2.204269
0.305000,2.144617
0.307500,2.099248
0.310000,2.071190
0.312500,2.061485
0.315000,2.068669
0.317500,2.088971
0.320000,2.117073
0.322500,2.147203
0.325000,2.174218
0.327500,2.194368
0.330000,2.205550
0.332500,2.207099
0.335000,2.199428
0.337500,2.183888
0.340000,2.163044
0.342500,2.141198
0.345000,2.124680
0.347500,2.121391
0.350000,2.139464
0.352500,2.185425
0.355000,2.262589
0.357500,2.370372
0.360000,2.504689
0.362500,2.658960
0.365000,2.824967
0.367500,2.993053
0.370000,3.151818
0.372500,3.288129
0.375000,3.388309
0.377500,3.440707
0.380000,3.438885
0.382500,3.383994
0.385000,3.285053
0.387500,3.156808
0.390000,3.016038
0.392500,2.877817
0.395000,2.753088
0.397500,2.648084
0.400000,2.565185
0.402500,2.504352
0.405000,2.464396
0.407500,2.443754
0.410000,2.440881
0.412500,2.454449
0.415000,2.483442
0.417500,2.527096
0.420000,2.584602
0.422500,2.654611
0.425000,2.734684
0.427500,2.820897
0.430000,2.907756
0.432500,2.988526
0.435000,3.055978
0.437500,3.103501
0.440000,3.126432
0.442500,3.123318
0.445000,3.096718
0.447500,3.053173
0.450000,3.002093
0.452500,2.953666
0.455000,2.916261
0.457500,2.894150
0.460000,2.886424
0.462500,2.887668
0.465000,2.890315
0.467500,2.887852
0.470000,2.877596
0.472500,2.861828
0.475000,2.846704
0.477500,2.839322
0.480000,2.844137
0.482500,2.860259
0.485000,2.880845
0.487500,2.894949
0.490000,2.891203
0.492500,2.861927
0.495000,2.806117
0.497500,2.730203
0.500000,2.646386
0.502500,2.569284
0.505000,2.512157
0.507500,2.484020
0.510000,2.488374
0.512500,2.523585
0.515000,2.584247
0.517500,2.662683
0.520000,2.749962
0.522500,2.836350
0.525000,2.911617
0.527500,2.965728
0.530000,2.990202
0.532500,2.979914
0.535000,2.934697
0.537500,2.860096
0.540000,2.766843
0.542500,2.669104
0.545000,2.581910
0.547500,2.518363
0.550000,2.487245
0.552500,2.491507
0.555000,2.527919
0.557500,2.587899
0.560000,2.659314
0.562500,2.728847
0.565000,2.784471
0.567500,2.817557
0.570000,2.824286
0.572500,2.806092
0.575000,2.769079
0.577500,2.722502
0.580000,2.676617
0.582500,2.640431
0.585000,2.619934
0.587500,2.617302
0.590000,2.631236
0.592500,2.658135
0.595000,2.693512
0.597500,2.732951
0.600000,2.772265
0.602500,2.806987
0.605000,2.831767
0.607500,2.840385
0.610000,2.826767
0.612500,2.786831
0.615000,2.720450
0.617500,2.632659
0.620000,2.533479
0.622500,2.436356
0.625000,2.355761
0.627500,2.304735
0.630000,2.293042
0.632500,2.326166
0.635000,2.405016
0.637500,2.526039
0.640000,2.681480
0.642500,2.859737
0.645000,3.045933
0.647500,3.222929
0.650000,3.372947
0.652500,3.479812
0.655000,3.531527
0.657500,3.522626
0.660000,3.455636
0.662500,3.341030
0.665000,3.195474
0.667500,3.038684
0.670000,2.889647
0.672500,2.763196
0.675000,2.667765
0.677500,2.604766
0.680000,2.569596
0.682500,2.553834
0.685000,2.548004
0.687500,2.544123
0.690000,2.537411
0.692500,2.526754
0.695000,2.513966
0.697500,2.502245
0.700000,2.494500
0.702500,2.492151
0.705000,2.494741
0.707500,2.500320
0.710000,2.506303
0.712500,2.510381
0.715000,2.511169
0.717500,2.508412
0.720000,2.502783
0.722500,2.495421
0.725000,2.487484
0.727500,2.479916
0.730000,2.473501
0.732500,2.469061
0.735000,2.467569
0.737500,2.469994
0.740000,2.476915
0.742500,2.488139
0.745000,2.502613
0.747500,2.518755
0.750000,2.535083
0.752500,2.550824
0.755000,2.566179
0.757500,2.582078
0.760000,2.599525
0.762500,2.618817
0.765000,2.639003
0.767500,2.657833
0.770000,2.672306
0.772500,2.679601
0.775000,2.678079
0.777500,2.667911
0.780000,2.651092
0.782500,2.630775
0.785000,2.610192
0.787500,2.591552
0.790000,2.575328
0.792500,2.560200
0.795000,2.543682
0.797500,2.523223
0.800000,2.497442
0.802500,2.467094
0.805000,2.435448
0.807500,2.407923
0.810000,2.391017
0.812500,2.390744
0.815000,2.410969
0.817500,2.452088
0.820000,2.510448
0.822500,2.578758
0.825000,2.647463
0.827500,2.706752
0.830000,2.748679
0.832500,2.768806
0.835000,2.766953
0.837500,2.746904
0.840000,2.715229
0.842500,2.679609
0.845000,2.647120
0.847500,2.622847
0.850000,2.609086
0.852500,2.605182
0.855000,2.607942
0.857500,2.612466
0.860000,2.613215
0.862500,2.605106
0.865000,2.584447
0.867500,2.549568
0.870000,2.501061
0.872500,2.441617
0.875000,2.375502
0.877500,2.307760
0.880000,2.243304
0.882500,2.186062
0.885000,2.138386
0.887500,2.100859
0.890000,2.072524
0.892500,2.051434
0.895000,2.035295
0.897500,2.022017
0.900000,2.010009
0.902500,1.998241
0.905000,1.986138
0.907500,1.973441
0.910000,1.960089
0.912500,1.946154
0.915000,1.931768
0.917500,1.917086
0.920000,1.902313
0.922500,1.887886
0.925000,1.874782
0.927500,1.864846
0.930000,1.860898
0.932500,1.866427
0.935000,1.884839
0.937500,1.918438
0.940000,1.967501
0.942500,2.029810
0.945000,2.100830
0.947500,2.174482
0.950000,2.244234
0.952500,2.304177
0.955000,2.349832
0.957500,2.378596
0.960000,2.389877
0.962500,2.385022
0.965000,2.367115
0.967500,2.340642
0.970000,2.310957
0.972500,2.283511
0.975000,2.262908
0.977500,2.251996
0.980000,2.251306
0.982500,2.259062
0.985000,2.271803
0.987500,2.285399
0.990000,2.296114
0.992500,2.301387
0.995000,2.300222
0.997500,2.293226
1.000000,2.282442
1.002500,2.271026
1.005000,2.262755
1.007500,2.261269
1.010000,2.269113
1.012500,2.286782
1.015000,2.312141
1.017500,2.340540
1.020000,2.365743
1.022500,2.381497
1.025000,2.383247
1.027500,2.369471
1.030000,2.342177
1.032500,2.306429
1.035000,2.269049
1.037500,2.236910
1.040000,2.215288
1.042500,2.206686
1.045000,2.210428
1.047500,2.223082
1.050000,2.239606
1.052500,2.254856
1.055000,2.265014
1.057500,2.268480
1.060000,2.265980
1.062500,2.259942
1.065000,2.253435
1.067500,2.249066
1.070000,2.248211
1.072500,2.250728
1.075000,2.255202
1.077500,2.259565
1.080000,2.261892
1.082500,2.261088
1.085000,2.257222
1.087500,2.251373
1.090000,2.245048
1.092500,2.239418
1.095000,2.234730
1.097500,2.230169
1.100000,2.224269
1.102500,2.215681
1.105000,2.203979
1.107500,2.190099
1.110000,2.176213
1.112500,2.165064
1.115000,2.159066
1.117500,2.159552
1.120000,2.166486
1.122500,2.178684
1.125000,2.194331
1.127500,2.211457
1.130000,2.228138
1.132500,2.242384
1.135000,2.251952
1.137500,2.254351
1.140000,2.247231
1.142500,2.229087
1.145000,2.200019
1.147500,2.162169
1.150000,2.119581
1.152500,2.077429
1.155000,2.040833
1.157500,2.013659
1.160000,1.997724
1.162500,1.992689
1.165000,1.996655
1.167500,2.007197
1.170000,2.022380
1.172500,2.041345
1.175000,2.064232
1.177500,2.091531
1.180000,2.123243
1.182500,2.158308
1.185000,2.194624
1.187500,2.229678
1.190000,2.261441
1.192500,2.289072
1.195000,2.313038
1.197500,2.334587
1.200000,2.354853
1.202500,2.374030
1.205000,2.391040
1.207500,2.403817
1.210000,2.410086
1.212500,2.408300
1.215000,2.398351
1.217500,2.381777
1.220000,2.361374
1.222500,2.340286
1.225000,2.320867
1.227500,2.303685
1.230000,2.287102
1.232500,2.267667
1.235000,2.241340
1.237500,2.205181
1.240000,2.158896
1.242500,2.105606
1.245000,2.051445
1.247500,2.004072
1.250000,1.970630
1.252500,1.955914
1.255000,1.961387
1.257500,1.985270
1.260000,2.023444
1.262500,2.070650
1.265000,2.121497
1.267500,2.171108
1.270000,2.215539
1.272500,2.252164
1.275000,2.280093
1.277500,2.300383
1.280000,2.315743
1.282500,2.329588
1.285000,2.344687
1.287500,2.361971
1.290000,2.380073
1.292500,2.395861
1.295000,2.405708
1.297500,2.406891
1.300000,2.398453
1.302500,2.381213
1.305000,2.357063
1.307500,2.328038
1.310000,2.295689
1.312500,2.260985
1.315000,2.224658
1.317500,2.187607
1.320000,2.151075
1.322500,2.116499
1.325000,2.085199
1.327500,2.058131
1.330000,2.035872
1.332500,2.018756
1.335000,2.007022
1.337500,2.000833
1.340000,2.000174
1.342500,2.004748
1.345000,2.013998
1.347500,2.027282
1.350000,2.044085
1.352500,2.064114
1.355000,2.087164
1.357500,2.112796
1.360000,2.139989
1.362500,2.166970
1.365000,2.191363
1.367500,2.210649
1.370000,2.222780
1.372500,2.226708
1.375000,2.222581
1.377500,2.211531
1.380000,2.195134
1.382500,2.174793
1.385000,2.151344
1.387500,2.125033
1.390000,2.095822
1.392500,2.063815
1.395000,2.029581
1.397500,1.994226
1.400000,1.959297
1.402500,1.926632
1.405000,1.898272
1.407500,1.876402
1.410000,1.863194
1.412500,1.860439
1.415000,1.868996
1.417500,1.888257
1.420000,1.915903
1.422500,1.948146
1.425000,1.980427
1.427500,2.008366
1.430000,2.028644
1.432500,2.039560
1.435000,2.041186
1.437500,2.035175
1.440000,2.024338
1.442500,2.012123
1.445000,2.002038
1.447500,1.997064
1.450000,1.999109
1.452500,2.008585
1.455000,2.024242
1.457500,2.043330
1.460000,2.062107
1.462500,2.076639
1.465000,2.083732
1.467500,2.081815
1.470000,2.071536
1.472500,2.055890
1.475000,2.039770
1.477500,2.028968
1.480000,2.028853
1.482500,2.043045
1.485000,2.072473
1.487500,2.115098
1.490000,2.166410
1.492500,2.220568
1.495000,2.271861
1.497500,2.316046
1.500000,2.351151
1.502500,2.377483
1.505000,2.396882
1.507500,2.411485
1.510000,2.422495
1.512500,2.429406
1.515000,2.429970
1.517500,2.420893
1.520000,2.399018
1.522500,2.362603
1.525000,2.312295
1.527500,2.251523
1.530000,2.186172
1.532500,2.123588
1.535000,2.071112
1.537500,2.034511
1.540000,2.016712
1.542500,2.017196
1.545000,2.032226
1.547500,2.055831
1.550000,2.081232
1.552500,2.102345
1.555000,2.114988
1.557500,2.117600
1.560000,2.111402
1.562500,2.100043
1.565000,2.088791
1.567500,2.083419
1.570000,2.088941
1.572500,2.108476
1.575000,2.142497
1.577500,2.188681
1.580000,2.242400
1.582500,2.297719
1.585000,2.348603
1.587500,2.390005
1.590000,2.418592
1.592500,2.432999
1.595000,2.433676
1.597500,2.422468
1.600000,2.402109
1.602500,2.375720
1.605000,2.346375
1.607500,2.316740
1.610000,2.288830
1.612500,2.263917
1.615000,2.242654
1.617500,2.225389
1.620000,2.212551
1.622500,2.204929
1.625000,2.203671
1.627500,2.209948
1.630000,2.224427
1.632500,2.246767
1.635000,2.275409
1.637500,2.307765
1.640000,2.340772
1.642500,2.371573
1.645000,2.398083
1.647500,2.419243
1.650000,2.434947
1.652500,2.445743
1.655000,2.452488
1.657500,2.456063
1.660000,2.457215
1.662500,2.456470
1.665000,2.454098
1.667500,2.450123
1.670000,2.444414
1.672500,2.436851
1.675000,2.427504
1.677500,2.416723
1.680000,2.405090
1.682500,2.393244
1.685000,2.381728
1.687500,2.370936
1.690000,2.361185
1.692500,2.352829
1.695000,2.346270
1.697500,2.341831
1.700000,2.339541
1.702500,2.338950
1.705000,2.339107
1.707500,2.338706
1.710000,2.336374
1.712500,2.330996
1.715000,2.322003
1.717500,2.309560
1.720000,2.294568
1.722500,2.278445
1.725000,2.262712
1.727500,2.248513
1.730000,2.236305
1.732500,2.225899
1.735000,2.216914
1.737500,2.209447
1.740000,2.204633
1.742500,2.204748
1.745000,2.212729
1.747500,2.231230
1.750000,2.261572
1.752500,2.302968
1.755000,2.352330
1.757500,2.404733
1.760000,2.454380
1.762500,2.495839
1.765000,2.525204
1.767500,2.540955
1.770000,2.544296
1.772500,2.538895
1.775000,2.530029
1.777500,2.523250
1.780000,2.522908
1.782500,2.530919
1.785000,2.546259
1.787500,2.565411
1.790000,2.583710
1.792500,2.597088
1.795000,2.603559
1.797500,2.603831
1.800000,2.600802
1.802500,2.598191
1.805000,2.598904
1.807500,2.603813
1.810000,2.611398
1.812500,2.618310
1.815000,2.620554
1.817500,2.614805
1.820000,2.599387
1.822500,2.574691
1.825000,2.542991
1.827500,2.507875
1.830000,2.473505
1.832500,2.443949
1.835000,2.422655
1.837500,2.412116
1.840000,2.413666
1.842500,2.427401
1.845000,2.452195
1.847500,2.485863
1.850000,2.525472
1.852500,2.567796
1.855000,2.609849
1.857500,2.649375
1.860000,2.685157
1.862500,2.717045
1.865000,2.745660
1.867500,2.771858
1.870000,2.796089
1.872500,2.817876
1.875000,2.835594
1.877500,2.846674
1.880000,2.848203
1.882500,2.837735
1.885000,2.814054
1.887500,2.777634
1.890000,2.730697
1.892500,2.676923
1.895000,2.620983
1.897500,2.568061
1.900000,2.523395
1.902500,2.491784
1.905000,2.476987
1.907500,2.481021
1.910000,2.503520
1.912500,2.541400
1.915000,2.589046
1.917500,2.639095
1.920000,2.683706
1.922500,2.716031
1.925000,2.731554
1.927500,2.728955
1.930000,2.710270
1.932500,2.680295
1.935000,2.645341
1.937500,2.611658
1.940000,2.583997
1.942500,2.564714
1.945000,2.553709
1.947500,2.549167
1.950000,2.548755
1.952500,2.550776
1.955000,2.554806
1.957500,2.561617
1.960000,2.572509
1.962500,2.588435
1.965000,2.609343
1.967500,2.634001
1.970000,2.660291
1.972500,2.685775
1.975000,2.708236
1.977500,2.725996
1.980000,2.737960
1.982500,2.743502
1.985000,2.742353
1.987500,2.734648
1.990000,2.721123
1.992500,2.703380
1.995000,2.684012
1.997500,2.666420
2.000000,2.654260
